BEGIN_SCAN_DATA
	FORMAT=CC-Export V1.9                  
	FILE_CREATION_DATE=28-Oct-2015 15:38:48
	LAST_MODIFIED=28-Oct-2015 15:38:48
	BEGIN_SCAN  1
		TASK_NAME=DOSE
		GROUP_NAME=LR_20.4
		PROGRAM=BeamAdjust 1.6.1.85
		COMMENT=Dmax
		MEAS_DATE=28-Oct-2015 15:38:38
		LINAC=Elekta
		MODALITY=EL
		INPLANE_AXIS_DIR=TARGET_GUN
		CROSSPLANE_AXIS_DIR=LEFT_RIGHT
		DEPTH_AXIS_DIR=UP_DOWN
		ENERGY=6.00
		SSD=1000.00
		WEDGE=None
		FIELD_INPLANE=200.00
		FIELD_CROSSPLANE=200.00
		FIELD_TYPE=RECTANGULAR
		GANTRY=0.00
		GANTRY_UPRIGHT_POSITION=0
		GANTRY_ROTATION=CW
		COLL_ANGLE=0.00
		COLL_OFFSET_INPLANE=0.00
		COLL_OFFSET_CROSSPLANE=0.00
		SCAN_DEVICE=OCTAVIUS
		ELECTROMETER=DETECTOR_INTERFACE
		DETECTOR=OCTAVIUS_729
		DETECTOR_SN=000535
		SCAN_CURVETYPE=CROSSPLANE_PROFILE
		SCAN_DEPTH=0.00
		SCAN_OFFAXIS_INPLANE=-130.00
		SCAN_ANGLE=0.00
		SCAN_DIAGONAL=NOT_DIAGONAL
		MEAS_PRESET=TIME_PRESET
		MEAS_TIME=20.400
		MEAS_UNIT=GY
		PRESSURE=1013.25
		TEMPERATURE=20.00
		NORM_TEMPERATURE=20.00
		CORRECTION_FACTOR=1.0000
		CORRECTIONS=AIR_DENSITY_CORR;
		BEGIN_DATA
			-130.00		2.4262E-03		#1
			-120.00		2.6943E-03		#28
			-110.00		4.6947E-03		#55
			-100.00		6.2396E-03		#82
			-90.00		7.0315E-03		#109
			-80.00		7.7397E-03		#136
			-70.00		8.1473E-03		#163
			-60.00		8.4968E-03		#190
			-50.00		8.6535E-03		#217
			-40.00		8.7422E-03		#244
			-30.00		8.8293E-03		#271
			-20.00		8.8317E-03		#298
			-10.00		8.8052E-03		#325
			0.00		8.5549E-03		#352
			10.00		8.8400E-03		#379
			20.00		8.9440E-03		#406
			30.00		8.9383E-03		#433
			40.00		8.9991E-03		#460
			50.00		8.8751E-03		#487
			60.00		8.6619E-03		#514
			70.00		8.4041E-03		#541
			80.00		7.7789E-03		#568
			90.00		6.9330E-03		#595
			100.00		5.8591E-03		#622
			110.00		3.6042E-03		#649
			120.00		2.5442E-03		#676
			130.00		2.4885E-03		#703
		END_DATA
	END_SCAN  1
	BEGIN_SCAN  2
		TASK_NAME=DOSE
		GROUP_NAME=LR_20.4
		PROGRAM=BeamAdjust 1.6.1.85
		COMMENT=Dmax
		MEAS_DATE=28-Oct-2015 15:38:38
		LINAC=Elekta
		MODALITY=EL
		INPLANE_AXIS_DIR=TARGET_GUN
		CROSSPLANE_AXIS_DIR=LEFT_RIGHT
		DEPTH_AXIS_DIR=UP_DOWN
		ENERGY=6.00
		SSD=1000.00
		WEDGE=None
		FIELD_INPLANE=200.00
		FIELD_CROSSPLANE=200.00
		FIELD_TYPE=RECTANGULAR
		GANTRY=0.00
		GANTRY_UPRIGHT_POSITION=0
		GANTRY_ROTATION=CW
		COLL_ANGLE=0.00
		COLL_OFFSET_INPLANE=0.00
		COLL_OFFSET_CROSSPLANE=0.00
		SCAN_DEVICE=OCTAVIUS
		ELECTROMETER=DETECTOR_INTERFACE
		DETECTOR=OCTAVIUS_729
		DETECTOR_SN=000535
		SCAN_CURVETYPE=CROSSPLANE_PROFILE
		SCAN_DEPTH=0.00
		SCAN_OFFAXIS_INPLANE=-120.00
		SCAN_ANGLE=0.00
		SCAN_DIAGONAL=NOT_DIAGONAL
		MEAS_PRESET=TIME_PRESET
		MEAS_TIME=20.400
		MEAS_UNIT=GY
		PRESSURE=1013.25
		TEMPERATURE=20.00
		NORM_TEMPERATURE=20.00
		CORRECTION_FACTOR=1.0000
		CORRECTIONS=AIR_DENSITY_CORR;
		BEGIN_DATA
			-130.00		3.2091E-03		#2
			-120.00		6.3265E-03		#29
			-110.00		17.735E-03		#56
			-100.00		30.897E-03		#83
			-90.00		36.257E-03		#110
			-80.00		37.936E-03		#137
			-70.00		38.981E-03		#164
			-60.00		39.801E-03		#191
			-50.00		40.117E-03		#218
			-40.00		40.389E-03		#245
			-30.00		40.473E-03		#272
			-20.00		40.615E-03		#299
			-10.00		41.157E-03		#326
			0.00		41.195E-03		#353
			10.00		41.474E-03		#380
			20.00		41.789E-03		#407
			30.00		41.989E-03		#434
			40.00		42.256E-03		#461
			50.00		42.204E-03		#488
			60.00		42.061E-03		#515
			70.00		41.470E-03		#542
			80.00		40.274E-03		#569
			90.00		38.124E-03		#596
			100.00		30.053E-03		#623
			110.00		13.991E-03		#650
			120.00		4.7222E-03		#677
			130.00		3.0345E-03		#704
		END_DATA
	END_SCAN  2
	BEGIN_SCAN  3
		TASK_NAME=DOSE
		GROUP_NAME=LR_20.4
		PROGRAM=BeamAdjust 1.6.1.85
		COMMENT=Dmax
		MEAS_DATE=28-Oct-2015 15:38:38
		LINAC=Elekta
		MODALITY=EL
		INPLANE_AXIS_DIR=TARGET_GUN
		CROSSPLANE_AXIS_DIR=LEFT_RIGHT
		DEPTH_AXIS_DIR=UP_DOWN
		ENERGY=6.00
		SSD=1000.00
		WEDGE=None
		FIELD_INPLANE=200.00
		FIELD_CROSSPLANE=200.00
		FIELD_TYPE=RECTANGULAR
		GANTRY=0.00
		GANTRY_UPRIGHT_POSITION=0
		GANTRY_ROTATION=CW
		COLL_ANGLE=0.00
		COLL_OFFSET_INPLANE=0.00
		COLL_OFFSET_CROSSPLANE=0.00
		SCAN_DEVICE=OCTAVIUS
		ELECTROMETER=DETECTOR_INTERFACE
		DETECTOR=OCTAVIUS_729
		DETECTOR_SN=000535
		SCAN_CURVETYPE=CROSSPLANE_PROFILE
		SCAN_DEPTH=0.00
		SCAN_OFFAXIS_INPLANE=-110.00
		SCAN_ANGLE=0.00
		SCAN_DIAGONAL=NOT_DIAGONAL
		MEAS_PRESET=TIME_PRESET
		MEAS_TIME=20.400
		MEAS_UNIT=GY
		PRESSURE=1013.25
		TEMPERATURE=20.00
		NORM_TEMPERATURE=20.00
		CORRECTION_FACTOR=1.0000
		CORRECTIONS=AIR_DENSITY_CORR;
		BEGIN_DATA
			-130.00		5.0295E-03		#3
			-120.00		21.515E-03		#30
			-110.00		104.70E-03		#57
			-100.00		211.21E-03		#84
			-90.00		239.42E-03		#111
			-80.00		246.83E-03		#138
			-70.00		250.49E-03		#165
			-60.00		254.02E-03		#192
			-50.00		255.60E-03		#219
			-40.00		257.30E-03		#246
			-30.00		258.41E-03		#273
			-20.00		260.21E-03		#300
			-10.00		263.59E-03		#327
			0.00		264.27E-03		#354
			10.00		265.70E-03		#381
			20.00		266.94E-03		#408
			30.00		267.99E-03		#435
			40.00		268.76E-03		#462
			50.00		268.61E-03		#489
			60.00		268.25E-03		#516
			70.00		267.79E-03		#543
			80.00		264.57E-03		#570
			90.00		256.14E-03		#597
			100.00		204.75E-03		#624
			110.00		70.856E-03		#651
			120.00		12.436E-03		#678
			130.00		4.1425E-03		#705
		END_DATA
	END_SCAN  3
	BEGIN_SCAN  4
		TASK_NAME=DOSE
		GROUP_NAME=LR_20.4
		PROGRAM=BeamAdjust 1.6.1.85
		COMMENT=Dmax
		MEAS_DATE=28-Oct-2015 15:38:38
		LINAC=Elekta
		MODALITY=EL
		INPLANE_AXIS_DIR=TARGET_GUN
		CROSSPLANE_AXIS_DIR=LEFT_RIGHT
		DEPTH_AXIS_DIR=UP_DOWN
		ENERGY=6.00
		SSD=1000.00
		WEDGE=None
		FIELD_INPLANE=200.00
		FIELD_CROSSPLANE=200.00
		FIELD_TYPE=RECTANGULAR
		GANTRY=0.00
		GANTRY_UPRIGHT_POSITION=0
		GANTRY_ROTATION=CW
		COLL_ANGLE=0.00
		COLL_OFFSET_INPLANE=0.00
		COLL_OFFSET_CROSSPLANE=0.00
		SCAN_DEVICE=OCTAVIUS
		ELECTROMETER=DETECTOR_INTERFACE
		DETECTOR=OCTAVIUS_729
		DETECTOR_SN=000535
		SCAN_CURVETYPE=CROSSPLANE_PROFILE
		SCAN_DEPTH=0.00
		SCAN_OFFAXIS_INPLANE=-100.00
		SCAN_ANGLE=0.00
		SCAN_DIAGONAL=NOT_DIAGONAL
		MEAS_PRESET=TIME_PRESET
		MEAS_TIME=20.400
		MEAS_UNIT=GY
		PRESSURE=1013.25
		TEMPERATURE=20.00
		NORM_TEMPERATURE=20.00
		CORRECTION_FACTOR=1.0000
		CORRECTIONS=AIR_DENSITY_CORR;
		BEGIN_DATA
			-130.00		7.9765E-03		#4
			-120.00		45.774E-03		#31
			-110.00		288.43E-03		#58
			-100.00		629.10E-03		#85
			-90.00		700.80E-03		#112
			-80.00		716.27E-03		#139
			-70.00		724.48E-03		#166
			-60.00		730.83E-03		#193
			-50.00		733.88E-03		#220
			-40.00		737.20E-03		#247
			-30.00		738.82E-03		#274
			-20.00		739.54E-03		#301
			-10.00		744.07E-03		#328
			0.00		737.91E-03		#355
			10.00		742.45E-03		#382
			20.00		746.68E-03		#409
			30.00		747.52E-03		#436
			40.00		748.33E-03		#463
			50.00		747.22E-03		#490
			60.00		744.91E-03		#517
			70.00		742.21E-03		#544
			80.00		733.54E-03		#571
			90.00		712.03E-03		#598
			100.00		576.36E-03		#625
			110.00		170.60E-03		#652
			120.00		23.945E-03		#679
			130.00		5.8143E-03		#706
		END_DATA
	END_SCAN  4
	BEGIN_SCAN  5
		TASK_NAME=DOSE
		GROUP_NAME=LR_20.4
		PROGRAM=BeamAdjust 1.6.1.85
		COMMENT=Dmax
		MEAS_DATE=28-Oct-2015 15:38:38
		LINAC=Elekta
		MODALITY=EL
		INPLANE_AXIS_DIR=TARGET_GUN
		CROSSPLANE_AXIS_DIR=LEFT_RIGHT
		DEPTH_AXIS_DIR=UP_DOWN
		ENERGY=6.00
		SSD=1000.00
		WEDGE=None
		FIELD_INPLANE=200.00
		FIELD_CROSSPLANE=200.00
		FIELD_TYPE=RECTANGULAR
		GANTRY=0.00
		GANTRY_UPRIGHT_POSITION=0
		GANTRY_ROTATION=CW
		COLL_ANGLE=0.00
		COLL_OFFSET_INPLANE=0.00
		COLL_OFFSET_CROSSPLANE=0.00
		SCAN_DEVICE=OCTAVIUS
		ELECTROMETER=DETECTOR_INTERFACE
		DETECTOR=OCTAVIUS_729
		DETECTOR_SN=000535
		SCAN_CURVETYPE=CROSSPLANE_PROFILE
		SCAN_DEPTH=0.00
		SCAN_OFFAXIS_INPLANE=-90.00
		SCAN_ANGLE=0.00
		SCAN_DIAGONAL=NOT_DIAGONAL
		MEAS_PRESET=TIME_PRESET
		MEAS_TIME=20.400
		MEAS_UNIT=GY
		PRESSURE=1013.25
		TEMPERATURE=20.00
		NORM_TEMPERATURE=20.00
		CORRECTION_FACTOR=1.0000
		CORRECTIONS=AIR_DENSITY_CORR;
		BEGIN_DATA
			-130.00		9.6685E-03		#5
			-120.00		56.433E-03		#32
			-110.00		347.93E-03		#59
			-100.00		749.58E-03		#86
			-90.00		834.59E-03		#113
			-80.00		853.25E-03		#140
			-70.00		862.92E-03		#167
			-60.00		870.58E-03		#194
			-50.00		873.30E-03		#221
			-40.00		877.75E-03		#248
			-30.00		876.51E-03		#275
			-20.00		877.66E-03		#302
			-10.00		880.30E-03		#329
			0.00		873.87E-03		#356
			10.00		876.44E-03		#383
			20.00		880.00E-03		#410
			30.00		881.72E-03		#437
			40.00		881.75E-03		#464
			50.00		878.74E-03		#491
			60.00		875.03E-03		#518
			70.00		871.79E-03		#545
			80.00		860.81E-03		#572
			90.00		833.31E-03		#599
			100.00		675.27E-03		#626
			110.00		205.63E-03		#653
			120.00		29.679E-03		#680
			130.00		7.0111E-03		#707
		END_DATA
	END_SCAN  5
	BEGIN_SCAN  6
		TASK_NAME=DOSE
		GROUP_NAME=LR_20.4
		PROGRAM=BeamAdjust 1.6.1.85
		COMMENT=Dmax
		MEAS_DATE=28-Oct-2015 15:38:38
		LINAC=Elekta
		MODALITY=EL
		INPLANE_AXIS_DIR=TARGET_GUN
		CROSSPLANE_AXIS_DIR=LEFT_RIGHT
		DEPTH_AXIS_DIR=UP_DOWN
		ENERGY=6.00
		SSD=1000.00
		WEDGE=None
		FIELD_INPLANE=200.00
		FIELD_CROSSPLANE=200.00
		FIELD_TYPE=RECTANGULAR
		GANTRY=0.00
		GANTRY_UPRIGHT_POSITION=0
		GANTRY_ROTATION=CW
		COLL_ANGLE=0.00
		COLL_OFFSET_INPLANE=0.00
		COLL_OFFSET_CROSSPLANE=0.00
		SCAN_DEVICE=OCTAVIUS
		ELECTROMETER=DETECTOR_INTERFACE
		DETECTOR=OCTAVIUS_729
		DETECTOR_SN=000535
		SCAN_CURVETYPE=CROSSPLANE_PROFILE
		SCAN_DEPTH=0.00
		SCAN_OFFAXIS_INPLANE=-80.00
		SCAN_ANGLE=0.00
		SCAN_DIAGONAL=NOT_DIAGONAL
		MEAS_PRESET=TIME_PRESET
		MEAS_TIME=20.400
		MEAS_UNIT=GY
		PRESSURE=1013.25
		TEMPERATURE=20.00
		NORM_TEMPERATURE=20.00
		CORRECTION_FACTOR=1.0000
		CORRECTIONS=AIR_DENSITY_CORR;
		BEGIN_DATA
			-130.00		10.545E-03		#6
			-120.00		59.140E-03		#33
			-110.00		360.35E-03		#60
			-100.00		775.01E-03		#87
			-90.00		862.89E-03		#114
			-80.00		883.09E-03		#141
			-70.00		893.84E-03		#168
			-60.00		900.74E-03		#195
			-50.00		902.96E-03		#222
			-40.00		906.07E-03		#249
			-30.00		905.39E-03		#276
			-20.00		906.47E-03		#303
			-10.00		906.97E-03		#330
			0.00		902.75E-03		#357
			10.00		903.52E-03		#384
			20.00		907.55E-03		#411
			30.00		908.45E-03		#438
			40.00		907.79E-03		#465
			50.00		907.08E-03		#492
			60.00		905.05E-03		#519
			70.00		899.86E-03		#546
			80.00		886.95E-03		#573
			90.00		860.10E-03		#600
			100.00		698.74E-03		#627
			110.00		215.70E-03		#654
			120.00		31.853E-03		#681
			130.00		7.8680E-03		#708
		END_DATA
	END_SCAN  6
	BEGIN_SCAN  7
		TASK_NAME=DOSE
		GROUP_NAME=LR_20.4
		PROGRAM=BeamAdjust 1.6.1.85
		COMMENT=Dmax
		MEAS_DATE=28-Oct-2015 15:38:38
		LINAC=Elekta
		MODALITY=EL
		INPLANE_AXIS_DIR=TARGET_GUN
		CROSSPLANE_AXIS_DIR=LEFT_RIGHT
		DEPTH_AXIS_DIR=UP_DOWN
		ENERGY=6.00
		SSD=1000.00
		WEDGE=None
		FIELD_INPLANE=200.00
		FIELD_CROSSPLANE=200.00
		FIELD_TYPE=RECTANGULAR
		GANTRY=0.00
		GANTRY_UPRIGHT_POSITION=0
		GANTRY_ROTATION=CW
		COLL_ANGLE=0.00
		COLL_OFFSET_INPLANE=0.00
		COLL_OFFSET_CROSSPLANE=0.00
		SCAN_DEVICE=OCTAVIUS
		ELECTROMETER=DETECTOR_INTERFACE
		DETECTOR=OCTAVIUS_729
		DETECTOR_SN=000535
		SCAN_CURVETYPE=CROSSPLANE_PROFILE
		SCAN_DEPTH=0.00
		SCAN_OFFAXIS_INPLANE=-70.00
		SCAN_ANGLE=0.00
		SCAN_DIAGONAL=NOT_DIAGONAL
		MEAS_PRESET=TIME_PRESET
		MEAS_TIME=20.400
		MEAS_UNIT=GY
		PRESSURE=1013.25
		TEMPERATURE=20.00
		NORM_TEMPERATURE=20.00
		CORRECTION_FACTOR=1.0000
		CORRECTIONS=AIR_DENSITY_CORR;
		BEGIN_DATA
			-130.00		11.037E-03		#7
			-120.00		60.239E-03		#34
			-110.00		364.84E-03		#61
			-100.00		786.54E-03		#88
			-90.00		874.79E-03		#115
			-80.00		895.63E-03		#142
			-70.00		907.40E-03		#169
			-60.00		912.91E-03		#196
			-50.00		914.76E-03		#223
			-40.00		918.70E-03		#250
			-30.00		917.97E-03		#277
			-20.00		920.04E-03		#304
			-10.00		919.65E-03		#331
			0.00		913.29E-03		#358
			10.00		914.34E-03		#385
			20.00		919.99E-03		#412
			30.00		920.77E-03		#439
			40.00		920.10E-03		#466
			50.00		919.81E-03		#493
			60.00		916.07E-03		#520
			70.00		912.30E-03		#547
			80.00		898.99E-03		#574
			90.00		870.72E-03		#601
			100.00		711.54E-03		#628
			110.00		221.34E-03		#655
			120.00		33.263E-03		#682
			130.00		8.3662E-03		#709
		END_DATA
	END_SCAN  7
	BEGIN_SCAN  8
		TASK_NAME=DOSE
		GROUP_NAME=LR_20.4
		PROGRAM=BeamAdjust 1.6.1.85
		COMMENT=Dmax
		MEAS_DATE=28-Oct-2015 15:38:38
		LINAC=Elekta
		MODALITY=EL
		INPLANE_AXIS_DIR=TARGET_GUN
		CROSSPLANE_AXIS_DIR=LEFT_RIGHT
		DEPTH_AXIS_DIR=UP_DOWN
		ENERGY=6.00
		SSD=1000.00
		WEDGE=None
		FIELD_INPLANE=200.00
		FIELD_CROSSPLANE=200.00
		FIELD_TYPE=RECTANGULAR
		GANTRY=0.00
		GANTRY_UPRIGHT_POSITION=0
		GANTRY_ROTATION=CW
		COLL_ANGLE=0.00
		COLL_OFFSET_INPLANE=0.00
		COLL_OFFSET_CROSSPLANE=0.00
		SCAN_DEVICE=OCTAVIUS
		ELECTROMETER=DETECTOR_INTERFACE
		DETECTOR=OCTAVIUS_729
		DETECTOR_SN=000535
		SCAN_CURVETYPE=CROSSPLANE_PROFILE
		SCAN_DEPTH=0.00
		SCAN_OFFAXIS_INPLANE=-60.00
		SCAN_ANGLE=0.00
		SCAN_DIAGONAL=NOT_DIAGONAL
		MEAS_PRESET=TIME_PRESET
		MEAS_TIME=20.400
		MEAS_UNIT=GY
		PRESSURE=1013.25
		TEMPERATURE=20.00
		NORM_TEMPERATURE=20.00
		CORRECTION_FACTOR=1.0000
		CORRECTIONS=AIR_DENSITY_CORR;
		BEGIN_DATA
			-130.00		11.283E-03		#8
			-120.00		60.600E-03		#35
			-110.00		365.67E-03		#62
			-100.00		792.30E-03		#89
			-90.00		881.85E-03		#116
			-80.00		902.23E-03		#143
			-70.00		913.67E-03		#170
			-60.00		919.81E-03		#197
			-50.00		922.91E-03		#224
			-40.00		925.86E-03		#251
			-30.00		924.12E-03		#278
			-20.00		924.97E-03		#305
			-10.00		926.28E-03		#332
			0.00		921.28E-03		#359
			10.00		925.04E-03		#386
			20.00		926.17E-03		#413
			30.00		928.31E-03		#440
			40.00		926.80E-03		#467
			50.00		926.87E-03		#494
			60.00		923.20E-03		#521
			70.00		918.18E-03		#548
			80.00		905.52E-03		#575
			90.00		876.58E-03		#602
			100.00		719.27E-03		#629
			110.00		224.73E-03		#656
			120.00		34.120E-03		#683
			130.00		8.8623E-03		#710
		END_DATA
	END_SCAN  8
	BEGIN_SCAN  9
		TASK_NAME=DOSE
		GROUP_NAME=LR_20.4
		PROGRAM=BeamAdjust 1.6.1.85
		COMMENT=Dmax
		MEAS_DATE=28-Oct-2015 15:38:38
		LINAC=Elekta
		MODALITY=EL
		INPLANE_AXIS_DIR=TARGET_GUN
		CROSSPLANE_AXIS_DIR=LEFT_RIGHT
		DEPTH_AXIS_DIR=UP_DOWN
		ENERGY=6.00
		SSD=1000.00
		WEDGE=None
		FIELD_INPLANE=200.00
		FIELD_CROSSPLANE=200.00
		FIELD_TYPE=RECTANGULAR
		GANTRY=0.00
		GANTRY_UPRIGHT_POSITION=0
		GANTRY_ROTATION=CW
		COLL_ANGLE=0.00
		COLL_OFFSET_INPLANE=0.00
		COLL_OFFSET_CROSSPLANE=0.00
		SCAN_DEVICE=OCTAVIUS
		ELECTROMETER=DETECTOR_INTERFACE
		DETECTOR=OCTAVIUS_729
		DETECTOR_SN=000535
		SCAN_CURVETYPE=CROSSPLANE_PROFILE
		SCAN_DEPTH=0.00
		SCAN_OFFAXIS_INPLANE=-50.00
		SCAN_ANGLE=0.00
		SCAN_DIAGONAL=NOT_DIAGONAL
		MEAS_PRESET=TIME_PRESET
		MEAS_TIME=20.400
		MEAS_UNIT=GY
		PRESSURE=1013.25
		TEMPERATURE=20.00
		NORM_TEMPERATURE=20.00
		CORRECTION_FACTOR=1.0000
		CORRECTIONS=AIR_DENSITY_CORR;
		BEGIN_DATA
			-130.00		11.441E-03		#9
			-120.00		60.586E-03		#36
			-110.00		364.61E-03		#63
			-100.00		794.17E-03		#90
			-90.00		885.52E-03		#117
			-80.00		904.31E-03		#144
			-70.00		916.07E-03		#171
			-60.00		922.99E-03		#198
			-50.00		926.61E-03		#225
			-40.00		930.05E-03		#252
			-30.00		928.94E-03		#279
			-20.00		928.01E-03		#306
			-10.00		930.93E-03		#333
			0.00		925.37E-03		#360
			10.00		926.96E-03		#387
			20.00		931.02E-03		#414
			30.00		931.44E-03		#441
			40.00		931.67E-03		#468
			50.00		931.16E-03		#495
			60.00		925.45E-03		#522
			70.00		919.96E-03		#549
			80.00		907.78E-03		#576
			90.00		879.83E-03		#603
			100.00		721.57E-03		#630
			110.00		225.79E-03		#657
			120.00		34.421E-03		#684
			130.00		8.9538E-03		#711
		END_DATA
	END_SCAN  9
	BEGIN_SCAN  10
		TASK_NAME=DOSE
		GROUP_NAME=LR_20.4
		PROGRAM=BeamAdjust 1.6.1.85
		COMMENT=Dmax
		MEAS_DATE=28-Oct-2015 15:38:38
		LINAC=Elekta
		MODALITY=EL
		INPLANE_AXIS_DIR=TARGET_GUN
		CROSSPLANE_AXIS_DIR=LEFT_RIGHT
		DEPTH_AXIS_DIR=UP_DOWN
		ENERGY=6.00
		SSD=1000.00
		WEDGE=None
		FIELD_INPLANE=200.00
		FIELD_CROSSPLANE=200.00
		FIELD_TYPE=RECTANGULAR
		GANTRY=0.00
		GANTRY_UPRIGHT_POSITION=0
		GANTRY_ROTATION=CW
		COLL_ANGLE=0.00
		COLL_OFFSET_INPLANE=0.00
		COLL_OFFSET_CROSSPLANE=0.00
		SCAN_DEVICE=OCTAVIUS
		ELECTROMETER=DETECTOR_INTERFACE
		DETECTOR=OCTAVIUS_729
		DETECTOR_SN=000535
		SCAN_CURVETYPE=CROSSPLANE_PROFILE
		SCAN_DEPTH=0.00
		SCAN_OFFAXIS_INPLANE=-40.00
		SCAN_ANGLE=0.00
		SCAN_DIAGONAL=NOT_DIAGONAL
		MEAS_PRESET=TIME_PRESET
		MEAS_TIME=20.400
		MEAS_UNIT=GY
		PRESSURE=1013.25
		TEMPERATURE=20.00
		NORM_TEMPERATURE=20.00
		CORRECTION_FACTOR=1.0000
		CORRECTIONS=AIR_DENSITY_CORR;
		BEGIN_DATA
			-130.00		11.478E-03		#10
			-120.00		60.416E-03		#37
			-110.00		363.85E-03		#64
			-100.00		794.68E-03		#91
			-90.00		886.57E-03		#118
			-80.00		903.29E-03		#145
			-70.00		916.51E-03		#172
			-60.00		922.42E-03		#199
			-50.00		928.60E-03		#226
			-40.00		931.96E-03		#253
			-30.00		930.36E-03		#280
			-20.00		930.04E-03		#307
			-10.00		931.15E-03		#334
			0.00		924.67E-03		#361
			10.00		928.17E-03		#388
			20.00		929.89E-03		#415
			30.00		932.52E-03		#442
			40.00		933.04E-03		#469
			50.00		932.00E-03		#496
			60.00		925.28E-03		#523
			70.00		920.63E-03		#550
			80.00		906.88E-03		#577
			90.00		879.07E-03		#604
			100.00		724.28E-03		#631
			110.00		227.91E-03		#658
			120.00		34.824E-03		#685
			130.00		9.0726E-03		#712
		END_DATA
	END_SCAN  10
	BEGIN_SCAN  11
		TASK_NAME=DOSE
		GROUP_NAME=LR_20.4
		PROGRAM=BeamAdjust 1.6.1.85
		COMMENT=Dmax
		MEAS_DATE=28-Oct-2015 15:38:38
		LINAC=Elekta
		MODALITY=EL
		INPLANE_AXIS_DIR=TARGET_GUN
		CROSSPLANE_AXIS_DIR=LEFT_RIGHT
		DEPTH_AXIS_DIR=UP_DOWN
		ENERGY=6.00
		SSD=1000.00
		WEDGE=None
		FIELD_INPLANE=200.00
		FIELD_CROSSPLANE=200.00
		FIELD_TYPE=RECTANGULAR
		GANTRY=0.00
		GANTRY_UPRIGHT_POSITION=0
		GANTRY_ROTATION=CW
		COLL_ANGLE=0.00
		COLL_OFFSET_INPLANE=0.00
		COLL_OFFSET_CROSSPLANE=0.00
		SCAN_DEVICE=OCTAVIUS
		ELECTROMETER=DETECTOR_INTERFACE
		DETECTOR=OCTAVIUS_729
		DETECTOR_SN=000535
		SCAN_CURVETYPE=CROSSPLANE_PROFILE
		SCAN_DEPTH=0.00
		SCAN_OFFAXIS_INPLANE=-30.00
		SCAN_ANGLE=0.00
		SCAN_DIAGONAL=NOT_DIAGONAL
		MEAS_PRESET=TIME_PRESET
		MEAS_TIME=20.400
		MEAS_UNIT=GY
		PRESSURE=1013.25
		TEMPERATURE=20.00
		NORM_TEMPERATURE=20.00
		CORRECTION_FACTOR=1.0000
		CORRECTIONS=AIR_DENSITY_CORR;
		BEGIN_DATA
			-130.00		11.394E-03		#11
			-120.00		60.085E-03		#38
			-110.00		360.62E-03		#65
			-100.00		794.32E-03		#92
			-90.00		886.69E-03		#119
			-80.00		904.44E-03		#146
			-70.00		916.83E-03		#173
			-60.00		922.31E-03		#200
			-50.00		927.03E-03		#227
			-40.00		928.57E-03		#254
			-30.00		929.14E-03		#281
			-20.00		928.98E-03		#308
			-10.00		930.65E-03		#335
			0.00		924.34E-03		#362
			10.00		926.34E-03		#389
			20.00		929.97E-03		#416
			30.00		931.80E-03		#443
			40.00		931.90E-03		#470
			50.00		929.47E-03		#497
			60.00		925.43E-03		#524
			70.00		919.94E-03		#551
			80.00		909.66E-03		#578
			90.00		878.74E-03		#605
			100.00		724.88E-03		#632
			110.00		229.10E-03		#659
			120.00		34.927E-03		#686
			130.00		9.1153E-03		#713
		END_DATA
	END_SCAN  11
	BEGIN_SCAN  12
		TASK_NAME=DOSE
		GROUP_NAME=LR_20.4
		PROGRAM=BeamAdjust 1.6.1.85
		COMMENT=Dmax
		MEAS_DATE=28-Oct-2015 15:38:38
		LINAC=Elekta
		MODALITY=EL
		INPLANE_AXIS_DIR=TARGET_GUN
		CROSSPLANE_AXIS_DIR=LEFT_RIGHT
		DEPTH_AXIS_DIR=UP_DOWN
		ENERGY=6.00
		SSD=1000.00
		WEDGE=None
		FIELD_INPLANE=200.00
		FIELD_CROSSPLANE=200.00
		FIELD_TYPE=RECTANGULAR
		GANTRY=0.00
		GANTRY_UPRIGHT_POSITION=0
		GANTRY_ROTATION=CW
		COLL_ANGLE=0.00
		COLL_OFFSET_INPLANE=0.00
		COLL_OFFSET_CROSSPLANE=0.00
		SCAN_DEVICE=OCTAVIUS
		ELECTROMETER=DETECTOR_INTERFACE
		DETECTOR=OCTAVIUS_729
		DETECTOR_SN=000535
		SCAN_CURVETYPE=CROSSPLANE_PROFILE
		SCAN_DEPTH=0.00
		SCAN_OFFAXIS_INPLANE=-20.00
		SCAN_ANGLE=0.00
		SCAN_DIAGONAL=NOT_DIAGONAL
		MEAS_PRESET=TIME_PRESET
		MEAS_TIME=20.400
		MEAS_UNIT=GY
		PRESSURE=1013.25
		TEMPERATURE=20.00
		NORM_TEMPERATURE=20.00
		CORRECTION_FACTOR=1.0000
		CORRECTIONS=AIR_DENSITY_CORR;
		BEGIN_DATA
			-130.00		11.470E-03		#12
			-120.00		59.769E-03		#39
			-110.00		360.98E-03		#66
			-100.00		795.10E-03		#93
			-90.00		887.44E-03		#120
			-80.00		906.47E-03		#147
			-70.00		917.49E-03		#174
			-60.00		921.31E-03		#201
			-50.00		928.08E-03		#228
			-40.00		928.24E-03		#255
			-30.00		928.02E-03		#282
			-20.00		930.52E-03		#309
			-10.00		929.56E-03		#336
			0.00		924.47E-03		#363
			10.00		929.79E-03		#390
			20.00		932.25E-03		#417
			30.00		931.37E-03		#444
			40.00		931.75E-03		#471
			50.00		929.59E-03		#498
			60.00		926.66E-03		#525
			70.00		922.35E-03		#552
			80.00		911.10E-03		#579
			90.00		881.19E-03		#606
			100.00		726.08E-03		#633
			110.00		229.71E-03		#660
			120.00		34.931E-03		#687
			130.00		9.1054E-03		#714
		END_DATA
	END_SCAN  12
	BEGIN_SCAN  13
		TASK_NAME=DOSE
		GROUP_NAME=LR_20.4
		PROGRAM=BeamAdjust 1.6.1.85
		COMMENT=Dmax
		MEAS_DATE=28-Oct-2015 15:38:38
		LINAC=Elekta
		MODALITY=EL
		INPLANE_AXIS_DIR=TARGET_GUN
		CROSSPLANE_AXIS_DIR=LEFT_RIGHT
		DEPTH_AXIS_DIR=UP_DOWN
		ENERGY=6.00
		SSD=1000.00
		WEDGE=None
		FIELD_INPLANE=200.00
		FIELD_CROSSPLANE=200.00
		FIELD_TYPE=RECTANGULAR
		GANTRY=0.00
		GANTRY_UPRIGHT_POSITION=0
		GANTRY_ROTATION=CW
		COLL_ANGLE=0.00
		COLL_OFFSET_INPLANE=0.00
		COLL_OFFSET_CROSSPLANE=0.00
		SCAN_DEVICE=OCTAVIUS
		ELECTROMETER=DETECTOR_INTERFACE
		DETECTOR=OCTAVIUS_729
		DETECTOR_SN=000535
		SCAN_CURVETYPE=CROSSPLANE_PROFILE
		SCAN_DEPTH=0.00
		SCAN_OFFAXIS_INPLANE=-10.00
		SCAN_ANGLE=0.00
		SCAN_DIAGONAL=NOT_DIAGONAL
		MEAS_PRESET=TIME_PRESET
		MEAS_TIME=20.400
		MEAS_UNIT=GY
		PRESSURE=1013.25
		TEMPERATURE=20.00
		NORM_TEMPERATURE=20.00
		CORRECTION_FACTOR=1.0000
		CORRECTIONS=AIR_DENSITY_CORR;
		BEGIN_DATA
			-130.00		11.306E-03		#13
			-120.00		59.552E-03		#40
			-110.00		358.32E-03		#67
			-100.00		788.96E-03		#94
			-90.00		883.75E-03		#121
			-80.00		901.62E-03		#148
			-70.00		913.07E-03		#175
			-60.00		918.88E-03		#202
			-50.00		926.69E-03		#229
			-40.00		923.27E-03		#256
			-30.00		924.00E-03		#283
			-20.00		927.94E-03		#310
			-10.00		926.39E-03		#337
			0.00		927.58E-03		#364
			10.00		930.71E-03		#391
			20.00		930.92E-03		#418
			30.00		927.78E-03		#445
			40.00		928.93E-03		#472
			50.00		927.37E-03		#499
			60.00		925.19E-03		#526
			70.00		920.65E-03		#553
			80.00		910.02E-03		#580
			90.00		879.70E-03		#607
			100.00		724.45E-03		#634
			110.00		230.28E-03		#661
			120.00		35.100E-03		#688
			130.00		9.0286E-03		#715
		END_DATA
	END_SCAN  13
	BEGIN_SCAN  14
		TASK_NAME=DOSE
		GROUP_NAME=LR_20.4
		PROGRAM=BeamAdjust 1.6.1.85
		COMMENT=Dmax
		MEAS_DATE=28-Oct-2015 15:38:38
		LINAC=Elekta
		MODALITY=EL
		INPLANE_AXIS_DIR=TARGET_GUN
		CROSSPLANE_AXIS_DIR=LEFT_RIGHT
		DEPTH_AXIS_DIR=UP_DOWN
		ENERGY=6.00
		SSD=1000.00
		WEDGE=None
		FIELD_INPLANE=200.00
		FIELD_CROSSPLANE=200.00
		FIELD_TYPE=RECTANGULAR
		GANTRY=0.00
		GANTRY_UPRIGHT_POSITION=0
		GANTRY_ROTATION=CW
		COLL_ANGLE=0.00
		COLL_OFFSET_INPLANE=0.00
		COLL_OFFSET_CROSSPLANE=0.00
		SCAN_DEVICE=OCTAVIUS
		ELECTROMETER=DETECTOR_INTERFACE
		DETECTOR=OCTAVIUS_729
		DETECTOR_SN=000535
		SCAN_CURVETYPE=CROSSPLANE_PROFILE
		SCAN_DEPTH=0.00
		SCAN_OFFAXIS_INPLANE=0.00
		SCAN_ANGLE=0.00
		SCAN_DIAGONAL=NOT_DIAGONAL
		MEAS_PRESET=TIME_PRESET
		MEAS_TIME=20.400
		MEAS_UNIT=GY
		PRESSURE=1013.25
		TEMPERATURE=20.00
		NORM_TEMPERATURE=20.00
		CORRECTION_FACTOR=1.0000
		CORRECTIONS=AIR_DENSITY_CORR;
		BEGIN_DATA
			-130.00		11.322E-03		#14
			-120.00		59.166E-03		#41
			-110.00		355.15E-03		#68
			-100.00		785.85E-03		#95
			-90.00		880.05E-03		#122
			-80.00		898.92E-03		#149
			-70.00		910.37E-03		#176
			-60.00		915.22E-03		#203
			-50.00		922.96E-03		#230
			-40.00		918.16E-03		#257
			-30.00		919.98E-03		#284
			-20.00		923.30E-03		#311
			-10.00		928.87E-03		#338
			0.00		928.88E-03		#365
			10.00		930.62E-03		#392
			20.00		926.97E-03		#419
			30.00		923.02E-03		#446
			40.00		923.56E-03		#473
			50.00		922.43E-03		#500
			60.00		918.64E-03		#527
			70.00		914.91E-03		#554
			80.00		903.80E-03		#581
			90.00		872.60E-03		#608
			100.00		720.01E-03		#635
			110.00		231.04E-03		#662
			120.00		35.351E-03		#689
			130.00		8.9719E-03		#716
		END_DATA
	END_SCAN  14
	BEGIN_SCAN  15
		TASK_NAME=DOSE
		GROUP_NAME=LR_20.4
		PROGRAM=BeamAdjust 1.6.1.85
		COMMENT=Dmax
		MEAS_DATE=28-Oct-2015 15:38:38
		LINAC=Elekta
		MODALITY=EL
		INPLANE_AXIS_DIR=TARGET_GUN
		CROSSPLANE_AXIS_DIR=LEFT_RIGHT
		DEPTH_AXIS_DIR=UP_DOWN
		ENERGY=6.00
		SSD=1000.00
		WEDGE=None
		FIELD_INPLANE=200.00
		FIELD_CROSSPLANE=200.00
		FIELD_TYPE=RECTANGULAR
		GANTRY=0.00
		GANTRY_UPRIGHT_POSITION=0
		GANTRY_ROTATION=CW
		COLL_ANGLE=0.00
		COLL_OFFSET_INPLANE=0.00
		COLL_OFFSET_CROSSPLANE=0.00
		SCAN_DEVICE=OCTAVIUS
		ELECTROMETER=DETECTOR_INTERFACE
		DETECTOR=OCTAVIUS_729
		DETECTOR_SN=000535
		SCAN_CURVETYPE=CROSSPLANE_PROFILE
		SCAN_DEPTH=0.00
		SCAN_OFFAXIS_INPLANE=10.00
		SCAN_ANGLE=0.00
		SCAN_DIAGONAL=NOT_DIAGONAL
		MEAS_PRESET=TIME_PRESET
		MEAS_TIME=20.400
		MEAS_UNIT=GY
		PRESSURE=1013.25
		TEMPERATURE=20.00
		NORM_TEMPERATURE=20.00
		CORRECTION_FACTOR=1.0000
		CORRECTIONS=AIR_DENSITY_CORR;
		BEGIN_DATA
			-130.00		11.353E-03		#15
			-120.00		58.856E-03		#42
			-110.00		354.86E-03		#69
			-100.00		791.62E-03		#96
			-90.00		886.70E-03		#123
			-80.00		905.54E-03		#150
			-70.00		915.29E-03		#177
			-60.00		922.45E-03		#204
			-50.00		929.20E-03		#231
			-40.00		929.13E-03		#258
			-30.00		926.49E-03		#285
			-20.00		929.54E-03		#312
			-10.00		929.58E-03		#339
			0.00		925.85E-03		#366
			10.00		929.18E-03		#393
			20.00		932.43E-03		#420
			30.00		929.08E-03		#447
			40.00		929.05E-03		#474
			50.00		927.81E-03		#501
			60.00		922.30E-03		#528
			70.00		919.89E-03		#555
			80.00		907.86E-03		#582
			90.00		883.94E-03		#609
			100.00		726.37E-03		#636
			110.00		232.62E-03		#663
			120.00		35.578E-03		#690
			130.00		9.0044E-03		#717
		END_DATA
	END_SCAN  15
	BEGIN_SCAN  16
		TASK_NAME=DOSE
		GROUP_NAME=LR_20.4
		PROGRAM=BeamAdjust 1.6.1.85
		COMMENT=Dmax
		MEAS_DATE=28-Oct-2015 15:38:38
		LINAC=Elekta
		MODALITY=EL
		INPLANE_AXIS_DIR=TARGET_GUN
		CROSSPLANE_AXIS_DIR=LEFT_RIGHT
		DEPTH_AXIS_DIR=UP_DOWN
		ENERGY=6.00
		SSD=1000.00
		WEDGE=None
		FIELD_INPLANE=200.00
		FIELD_CROSSPLANE=200.00
		FIELD_TYPE=RECTANGULAR
		GANTRY=0.00
		GANTRY_UPRIGHT_POSITION=0
		GANTRY_ROTATION=CW
		COLL_ANGLE=0.00
		COLL_OFFSET_INPLANE=0.00
		COLL_OFFSET_CROSSPLANE=0.00
		SCAN_DEVICE=OCTAVIUS
		ELECTROMETER=DETECTOR_INTERFACE
		DETECTOR=OCTAVIUS_729
		DETECTOR_SN=000535
		SCAN_CURVETYPE=CROSSPLANE_PROFILE
		SCAN_DEPTH=0.00
		SCAN_OFFAXIS_INPLANE=20.00
		SCAN_ANGLE=0.00
		SCAN_DIAGONAL=NOT_DIAGONAL
		MEAS_PRESET=TIME_PRESET
		MEAS_TIME=20.400
		MEAS_UNIT=GY
		PRESSURE=1013.25
		TEMPERATURE=20.00
		NORM_TEMPERATURE=20.00
		CORRECTION_FACTOR=1.0000
		CORRECTIONS=AIR_DENSITY_CORR;
		BEGIN_DATA
			-130.00		11.254E-03		#16
			-120.00		58.548E-03		#43
			-110.00		352.02E-03		#70
			-100.00		790.89E-03		#97
			-90.00		885.18E-03		#124
			-80.00		903.58E-03		#151
			-70.00		913.37E-03		#178
			-60.00		919.52E-03		#205
			-50.00		926.68E-03		#232
			-40.00		929.01E-03		#259
			-30.00		925.19E-03		#286
			-20.00		926.23E-03		#313
			-10.00		926.76E-03		#340
			0.00		922.87E-03		#367
			10.00		926.76E-03		#394
			20.00		931.94E-03		#421
			30.00		925.40E-03		#448
			40.00		927.26E-03		#475
			50.00		926.47E-03		#502
			60.00		917.35E-03		#529
			70.00		918.20E-03		#556
			80.00		906.72E-03		#583
			90.00		881.90E-03		#610
			100.00		725.82E-03		#637
			110.00		233.04E-03		#664
			120.00		35.597E-03		#691
			130.00		8.8816E-03		#718
		END_DATA
	END_SCAN  16
	BEGIN_SCAN  17
		TASK_NAME=DOSE
		GROUP_NAME=LR_20.4
		PROGRAM=BeamAdjust 1.6.1.85
		COMMENT=Dmax
		MEAS_DATE=28-Oct-2015 15:38:38
		LINAC=Elekta
		MODALITY=EL
		INPLANE_AXIS_DIR=TARGET_GUN
		CROSSPLANE_AXIS_DIR=LEFT_RIGHT
		DEPTH_AXIS_DIR=UP_DOWN
		ENERGY=6.00
		SSD=1000.00
		WEDGE=None
		FIELD_INPLANE=200.00
		FIELD_CROSSPLANE=200.00
		FIELD_TYPE=RECTANGULAR
		GANTRY=0.00
		GANTRY_UPRIGHT_POSITION=0
		GANTRY_ROTATION=CW
		COLL_ANGLE=0.00
		COLL_OFFSET_INPLANE=0.00
		COLL_OFFSET_CROSSPLANE=0.00
		SCAN_DEVICE=OCTAVIUS
		ELECTROMETER=DETECTOR_INTERFACE
		DETECTOR=OCTAVIUS_729
		DETECTOR_SN=000535
		SCAN_CURVETYPE=CROSSPLANE_PROFILE
		SCAN_DEPTH=0.00
		SCAN_OFFAXIS_INPLANE=30.00
		SCAN_ANGLE=0.00
		SCAN_DIAGONAL=NOT_DIAGONAL
		MEAS_PRESET=TIME_PRESET
		MEAS_TIME=20.400
		MEAS_UNIT=GY
		PRESSURE=1013.25
		TEMPERATURE=20.00
		NORM_TEMPERATURE=20.00
		CORRECTION_FACTOR=1.0000
		CORRECTIONS=AIR_DENSITY_CORR;
		BEGIN_DATA
			-130.00		9.6329E-03		#17
			-120.00		57.914E-03		#44
			-110.00		349.78E-03		#71
			-100.00		792.51E-03		#98
			-90.00		883.57E-03		#125
			-80.00		902.99E-03		#152
			-70.00		913.90E-03		#179
			-60.00		917.94E-03		#206
			-50.00		926.15E-03		#233
			-40.00		930.11E-03		#260
			-30.00		924.78E-03		#287
			-20.00		925.95E-03		#314
			-10.00		926.45E-03		#341
			0.00		920.39E-03		#368
			10.00		925.04E-03		#395
			20.00		930.34E-03		#422
			30.00		932.16E-03		#449
			40.00		928.05E-03		#476
			50.00		926.53E-03		#503
			60.00		920.22E-03		#530
