BEGIN_SCAN_DATA
	FORMAT=CC-Export V1.9                  
	FILE_CREATION_DATE=24-Jul-2014 12:23:35
	LAST_MODIFIED=24-Jul-2014 12:23:35
	BEGIN_SCAN  1
		TASK_NAME=DOSE
		GROUP_NAME=LR_29.2
		PROGRAM=BeamAdjust 1.6.1.85
		MEAS_DATE=24-Jul-2014 12:22:46
		LINAC=Elekta
		MODALITY=X
		INPLANE_AXIS_DIR=TARGET_GUN
		CROSSPLANE_AXIS_DIR=LEFT_RIGHT
		DEPTH_AXIS_DIR=UP_DOWN
		ENERGY=6.00
		SSD=1000.00
		WEDGE=None
		FIELD_INPLANE=200.00
		FIELD_CROSSPLANE=200.00
		FIELD_TYPE=RECTANGULAR
		GANTRY=0.00
		GANTRY_UPRIGHT_POSITION=0
		GANTRY_ROTATION=CW
		COLL_ANGLE=0.00
		COLL_OFFSET_INPLANE=0.00
		COLL_OFFSET_CROSSPLANE=0.00
		SCAN_DEVICE=OCTAVIUS
		ELECTROMETER=DETECTOR_INTERFACE
		DETECTOR=OCTAVIUS_729
		DETECTOR_SN=000535
		SCAN_CURVETYPE=CROSSPLANE_PROFILE
		SCAN_DEPTH=0.00
		SCAN_OFFAXIS_INPLANE=-130.00
		SCAN_ANGLE=0.00
		SCAN_DIAGONAL=NOT_DIAGONAL
		MEAS_PRESET=TIME_PRESET
		MEAS_TIME=29.200
		MEAS_UNIT=GY
		PRESSURE=1013.25
		TEMPERATURE=20.00
		NORM_TEMPERATURE=20.00
		CORRECTION_FACTOR=1.0000
		CORRECTIONS=AIR_DENSITY_CORR;
		BEGIN_DATA
			-130.00		0		#1
			-120.00		0		#28
			-110.00		0		#55
			-100.00		0		#82
			-90.00		0		#109
			-80.00		0		#136
			-70.00		0		#163
			-60.00		0		#190
			-50.00		0		#217
			-40.00		0		#244
			-30.00		0		#271
			-20.00		0		#298
			-10.00		0		#325
			0.00		0		#352
			10.00		0		#379
			20.00		0		#406
			30.00		0		#433
			40.00		0		#460
			50.00		0		#487
			60.00		0		#514
			70.00		0		#541
			80.00		0		#568
			90.00		0		#595
			100.00		0		#622
			110.00		0		#649
			120.00		0		#676
			130.00		0		#703
		END_DATA
	END_SCAN  1
	BEGIN_SCAN  2
		TASK_NAME=DOSE
		GROUP_NAME=LR_29.2
		PROGRAM=BeamAdjust 1.6.1.85
		MEAS_DATE=24-Jul-2014 12:22:46
		LINAC=Elekta
		MODALITY=X
		INPLANE_AXIS_DIR=TARGET_GUN
		CROSSPLANE_AXIS_DIR=LEFT_RIGHT
		DEPTH_AXIS_DIR=UP_DOWN
		ENERGY=6.00
		SSD=1000.00
		WEDGE=None
		FIELD_INPLANE=200.00
		FIELD_CROSSPLANE=200.00
		FIELD_TYPE=RECTANGULAR
		GANTRY=0.00
		GANTRY_UPRIGHT_POSITION=0
		GANTRY_ROTATION=CW
		COLL_ANGLE=0.00
		COLL_OFFSET_INPLANE=0.00
		COLL_OFFSET_CROSSPLANE=0.00
		SCAN_DEVICE=OCTAVIUS
		ELECTROMETER=DETECTOR_INTERFACE
		DETECTOR=OCTAVIUS_729
		DETECTOR_SN=000535
		SCAN_CURVETYPE=CROSSPLANE_PROFILE
		SCAN_DEPTH=0.00
		SCAN_OFFAXIS_INPLANE=-120.00
		SCAN_ANGLE=0.00
		SCAN_DIAGONAL=NOT_DIAGONAL
		MEAS_PRESET=TIME_PRESET
		MEAS_TIME=29.200
		MEAS_UNIT=GY
		PRESSURE=1013.25
		TEMPERATURE=20.00
		NORM_TEMPERATURE=20.00
		CORRECTION_FACTOR=1.0000
		CORRECTIONS=AIR_DENSITY_CORR;
		BEGIN_DATA
			-130.00		0		#2
			-120.00		0		#29
			-110.00		0		#56
			-100.00		0		#83
			-90.00		0		#110
			-80.00		0		#137
			-70.00		0		#164
			-60.00		0		#191
			-50.00		0		#218
			-40.00		0		#245
			-30.00		0		#272
			-20.00		0		#299
			-10.00		0		#326
			0.00		0		#353
			10.00		0		#380
			20.00		0		#407
			30.00		0		#434
			40.00		0		#461
			50.00		0		#488
			60.00		0		#515
			70.00		0		#542
			80.00		0		#569
			90.00		0		#596
			100.00		0		#623
			110.00		0		#650
			120.00		0		#677
			130.00		0		#704
		END_DATA
	END_SCAN  2
	BEGIN_SCAN  3
		TASK_NAME=DOSE
		GROUP_NAME=LR_29.2
		PROGRAM=BeamAdjust 1.6.1.85
		MEAS_DATE=24-Jul-2014 12:22:46
		LINAC=Elekta
		MODALITY=X
		INPLANE_AXIS_DIR=TARGET_GUN
		CROSSPLANE_AXIS_DIR=LEFT_RIGHT
		DEPTH_AXIS_DIR=UP_DOWN
		ENERGY=6.00
		SSD=1000.00
		WEDGE=None
		FIELD_INPLANE=200.00
		FIELD_CROSSPLANE=200.00
		FIELD_TYPE=RECTANGULAR
		GANTRY=0.00
		GANTRY_UPRIGHT_POSITION=0
		GANTRY_ROTATION=CW
		COLL_ANGLE=0.00
		COLL_OFFSET_INPLANE=0.00
		COLL_OFFSET_CROSSPLANE=0.00
		SCAN_DEVICE=OCTAVIUS
		ELECTROMETER=DETECTOR_INTERFACE
		DETECTOR=OCTAVIUS_729
		DETECTOR_SN=000535
		SCAN_CURVETYPE=CROSSPLANE_PROFILE
		SCAN_DEPTH=0.00
		SCAN_OFFAXIS_INPLANE=-110.00
		SCAN_ANGLE=0.00
		SCAN_DIAGONAL=NOT_DIAGONAL
		MEAS_PRESET=TIME_PRESET
		MEAS_TIME=29.200
		MEAS_UNIT=GY
		PRESSURE=1013.25
		TEMPERATURE=20.00
		NORM_TEMPERATURE=20.00
		CORRECTION_FACTOR=1.0000
		CORRECTIONS=AIR_DENSITY_CORR;
		BEGIN_DATA
			-130.00		0		#3
			-120.00		0		#30
			-110.00		0		#57
			-100.00		0		#84
			-90.00		0		#111
			-80.00		0		#138
			-70.00		0		#165
			-60.00		0		#192
			-50.00		0		#219
			-40.00		0		#246
			-30.00		0		#273
			-20.00		0		#300
			-10.00		0		#327
			0.00		0		#354
			10.00		0		#381
			20.00		0		#408
			30.00		0		#435
			40.00		0		#462
			50.00		0		#489
			60.00		0		#516
			70.00		0		#543
			80.00		0		#570
			90.00		0		#597
			100.00		0		#624
			110.00		0		#651
			120.00		0		#678
			130.00		0		#705
		END_DATA
	END_SCAN  3
	BEGIN_SCAN  4
		TASK_NAME=DOSE
		GROUP_NAME=LR_29.2
		PROGRAM=BeamAdjust 1.6.1.85
		MEAS_DATE=24-Jul-2014 12:22:46
		LINAC=Elekta
		MODALITY=X
		INPLANE_AXIS_DIR=TARGET_GUN
		CROSSPLANE_AXIS_DIR=LEFT_RIGHT
		DEPTH_AXIS_DIR=UP_DOWN
		ENERGY=6.00
		SSD=1000.00
		WEDGE=None
		FIELD_INPLANE=200.00
		FIELD_CROSSPLANE=200.00
		FIELD_TYPE=RECTANGULAR
		GANTRY=0.00
		GANTRY_UPRIGHT_POSITION=0
		GANTRY_ROTATION=CW
		COLL_ANGLE=0.00
		COLL_OFFSET_INPLANE=0.00
		COLL_OFFSET_CROSSPLANE=0.00
		SCAN_DEVICE=OCTAVIUS
		ELECTROMETER=DETECTOR_INTERFACE
		DETECTOR=OCTAVIUS_729
		DETECTOR_SN=000535
		SCAN_CURVETYPE=CROSSPLANE_PROFILE
		SCAN_DEPTH=0.00
		SCAN_OFFAXIS_INPLANE=-100.00
		SCAN_ANGLE=0.00
		SCAN_DIAGONAL=NOT_DIAGONAL
		MEAS_PRESET=TIME_PRESET
		MEAS_TIME=29.200
		MEAS_UNIT=GY
		PRESSURE=1013.25
		TEMPERATURE=20.00
		NORM_TEMPERATURE=20.00
		CORRECTION_FACTOR=1.0000
		CORRECTIONS=AIR_DENSITY_CORR;
		BEGIN_DATA
			-130.00		0		#4
			-120.00		0		#31
			-110.00		0		#58
			-100.00		500.0E-03		#85
			-90.00		500.0E-03		#112
			-80.00		500.0E-03		#139
			-70.00		500.0E-03		#166
			-60.00		500.0E-03		#193
			-50.00		500.0E-03		#220
			-40.00		500.0E-03		#247
			-30.00		500.0E-03		#274
			-20.00		500.0E-03		#301
			-10.00		500.0E-03		#328
			0.00		500.0E-03		#355
			10.00		500.0E-03		#382
			20.00		500.0E-03		#409
			30.00		500.0E-03		#436
			40.00		500.0E-03		#463
			50.00		500.0E-03		#490
			60.00		500.0E-03		#517
			70.00		500.0E-03		#544
			80.00		500.0E-03		#571
			90.00		500.0E-03		#598
			100.00		500.0E-03		#625
			110.00		0		#652
			120.00		0		#679
			130.00		0		#706
		END_DATA
	END_SCAN  4
	BEGIN_SCAN  5
		TASK_NAME=DOSE
		GROUP_NAME=LR_29.2
		PROGRAM=BeamAdjust 1.6.1.85
		MEAS_DATE=24-Jul-2014 12:22:46
		LINAC=Elekta
		MODALITY=X
		INPLANE_AXIS_DIR=TARGET_GUN
		CROSSPLANE_AXIS_DIR=LEFT_RIGHT
		DEPTH_AXIS_DIR=UP_DOWN
		ENERGY=6.00
		SSD=1000.00
		WEDGE=None
		FIELD_INPLANE=200.00
		FIELD_CROSSPLANE=200.00
		FIELD_TYPE=RECTANGULAR
		GANTRY=0.00
		GANTRY_UPRIGHT_POSITION=0
		GANTRY_ROTATION=CW
		COLL_ANGLE=0.00
		COLL_OFFSET_INPLANE=0.00
		COLL_OFFSET_CROSSPLANE=0.00
		SCAN_DEVICE=OCTAVIUS
		ELECTROMETER=DETECTOR_INTERFACE
		DETECTOR=OCTAVIUS_729
		DETECTOR_SN=000535
		SCAN_CURVETYPE=CROSSPLANE_PROFILE
		SCAN_DEPTH=0.00
		SCAN_OFFAXIS_INPLANE=-90.00
		SCAN_ANGLE=0.00
		SCAN_DIAGONAL=NOT_DIAGONAL
		MEAS_PRESET=TIME_PRESET
		MEAS_TIME=29.200
		MEAS_UNIT=GY
		PRESSURE=1013.25
		TEMPERATURE=20.00
		NORM_TEMPERATURE=20.00
		CORRECTION_FACTOR=1.0000
		CORRECTIONS=AIR_DENSITY_CORR;
		BEGIN_DATA
			-130.00		0		#5
			-120.00		0		#32
			-110.00		0		#59
			-100.00		500.0E-03		#86
			-90.00		1		#113
			-80.00		1		#140
			-70.00		1		#167
			-60.00		1		#194
			-50.00		1		#221
			-40.00		1		#248
			-30.00		1		#275
			-20.00		1		#302
			-10.00		1		#329
			0.00		1		#356
			10.00		1		#383
			20.00		1		#410
			30.00		1		#437
			40.00		1		#464
			50.00		1		#491
			60.00		1		#518
			70.00		1		#545
			80.00		1		#572
			90.00		1		#599
			100.00		500.0E-03		#626
			110.00		0		#653
			120.00		0		#680
			130.00		0		#707
		END_DATA
	END_SCAN  5
	BEGIN_SCAN  6
		TASK_NAME=DOSE
		GROUP_NAME=LR_29.2
		PROGRAM=BeamAdjust 1.6.1.85
		MEAS_DATE=24-Jul-2014 12:22:46
		LINAC=Elekta
		MODALITY=X
		INPLANE_AXIS_DIR=TARGET_GUN
		CROSSPLANE_AXIS_DIR=LEFT_RIGHT
		DEPTH_AXIS_DIR=UP_DOWN
		ENERGY=6.00
		SSD=1000.00
		WEDGE=None
		FIELD_INPLANE=200.00
		FIELD_CROSSPLANE=200.00
		FIELD_TYPE=RECTANGULAR
		GANTRY=0.00
		GANTRY_UPRIGHT_POSITION=0
		GANTRY_ROTATION=CW
		COLL_ANGLE=0.00
		COLL_OFFSET_INPLANE=0.00
		COLL_OFFSET_CROSSPLANE=0.00
		SCAN_DEVICE=OCTAVIUS
		ELECTROMETER=DETECTOR_INTERFACE
		DETECTOR=OCTAVIUS_729
		DETECTOR_SN=000535
		SCAN_CURVETYPE=CROSSPLANE_PROFILE
		SCAN_DEPTH=0.00
		SCAN_OFFAXIS_INPLANE=-80.00
		SCAN_ANGLE=0.00
		SCAN_DIAGONAL=NOT_DIAGONAL
		MEAS_PRESET=TIME_PRESET
		MEAS_TIME=29.200
		MEAS_UNIT=GY
		PRESSURE=1013.25
		TEMPERATURE=20.00
		NORM_TEMPERATURE=20.00
		CORRECTION_FACTOR=1.0000
		CORRECTIONS=AIR_DENSITY_CORR;
		BEGIN_DATA
			-130.00		0		#6
			-120.00		0		#33
			-110.00		0		#60
			-100.00		500.0E-03		#87
			-90.00		1		#114
			-80.00		1		#141
			-70.00		1		#168
			-60.00		1		#195
			-50.00		1		#222
			-40.00		1		#249
			-30.00		1		#276
			-20.00		1		#303
			-10.00		1		#330
			0.00		1		#357
			10.00		1		#384
			20.00		1		#411
			30.00		1		#438
			40.00		1		#465
			50.00		1		#492
			60.00		1		#519
			70.00		1		#546
			80.00		1		#573
			90.00		1		#600
			100.00		500.0E-03		#627
			110.00		0		#654
			120.00		0		#681
			130.00		0		#708
		END_DATA
	END_SCAN  6
	BEGIN_SCAN  7
		TASK_NAME=DOSE
		GROUP_NAME=LR_29.2
		PROGRAM=BeamAdjust 1.6.1.85
		MEAS_DATE=24-Jul-2014 12:22:46
		LINAC=Elekta
		MODALITY=X
		INPLANE_AXIS_DIR=TARGET_GUN
		CROSSPLANE_AXIS_DIR=LEFT_RIGHT
		DEPTH_AXIS_DIR=UP_DOWN
		ENERGY=6.00
		SSD=1000.00
		WEDGE=None
		FIELD_INPLANE=200.00
		FIELD_CROSSPLANE=200.00
		FIELD_TYPE=RECTANGULAR
		GANTRY=0.00
		GANTRY_UPRIGHT_POSITION=0
		GANTRY_ROTATION=CW
		COLL_ANGLE=0.00
		COLL_OFFSET_INPLANE=0.00
		COLL_OFFSET_CROSSPLANE=0.00
		SCAN_DEVICE=OCTAVIUS
		ELECTROMETER=DETECTOR_INTERFACE
		DETECTOR=OCTAVIUS_729
		DETECTOR_SN=000535
		SCAN_CURVETYPE=CROSSPLANE_PROFILE
		SCAN_DEPTH=0.00
		SCAN_OFFAXIS_INPLANE=-70.00
		SCAN_ANGLE=0.00
		SCAN_DIAGONAL=NOT_DIAGONAL
		MEAS_PRESET=TIME_PRESET
		MEAS_TIME=29.200
		MEAS_UNIT=GY
		PRESSURE=1013.25
		TEMPERATURE=20.00
		NORM_TEMPERATURE=20.00
		CORRECTION_FACTOR=1.0000
		CORRECTIONS=AIR_DENSITY_CORR;
		BEGIN_DATA
			-130.00		0		#7
			-120.00		0		#34
			-110.00		0		#61
			-100.00		500.0E-03		#88
			-90.00		1		#115
			-80.00		1		#142
			-70.00		1		#169
			-60.00		1		#196
			-50.00		1		#223
			-40.00		1		#250
			-30.00		1		#277
			-20.00		1		#304
			-10.00		1		#331
			0.00		1		#358
			10.00		1		#385
			20.00		1		#412
			30.00		1		#439
			40.00		1		#466
			50.00		1		#493
			60.00		1		#520
			70.00		1		#547
			80.00		1		#574
			90.00		1		#601
			100.00		500.0E-03		#628
			110.00		0		#655
			120.00		0		#682
			130.00		0		#709
		END_DATA
	END_SCAN  7
	BEGIN_SCAN  8
		TASK_NAME=DOSE
		GROUP_NAME=LR_29.2
		PROGRAM=BeamAdjust 1.6.1.85
		MEAS_DATE=24-Jul-2014 12:22:46
		LINAC=Elekta
		MODALITY=X
		INPLANE_AXIS_DIR=TARGET_GUN
		CROSSPLANE_AXIS_DIR=LEFT_RIGHT
		DEPTH_AXIS_DIR=UP_DOWN
		ENERGY=6.00
		SSD=1000.00
		WEDGE=None
		FIELD_INPLANE=200.00
		FIELD_CROSSPLANE=200.00
		FIELD_TYPE=RECTANGULAR
		GANTRY=0.00
		GANTRY_UPRIGHT_POSITION=0
		GANTRY_ROTATION=CW
		COLL_ANGLE=0.00
		COLL_OFFSET_INPLANE=0.00
		COLL_OFFSET_CROSSPLANE=0.00
		SCAN_DEVICE=OCTAVIUS
		ELECTROMETER=DETECTOR_INTERFACE
		DETECTOR=OCTAVIUS_729
		DETECTOR_SN=000535
		SCAN_CURVETYPE=CROSSPLANE_PROFILE
		SCAN_DEPTH=0.00
		SCAN_OFFAXIS_INPLANE=-60.00
		SCAN_ANGLE=0.00
		SCAN_DIAGONAL=NOT_DIAGONAL
		MEAS_PRESET=TIME_PRESET
		MEAS_TIME=29.200
		MEAS_UNIT=GY
		PRESSURE=1013.25
		TEMPERATURE=20.00
		NORM_TEMPERATURE=20.00
		CORRECTION_FACTOR=1.0000
		CORRECTIONS=AIR_DENSITY_CORR;
		BEGIN_DATA
			-130.00		0		#8
			-120.00		0		#35
			-110.00		0		#62
			-100.00		500.0E-03		#89
			-90.00		1		#116
			-80.00		1		#143
			-70.00		1		#170
			-60.00		1		#197
			-50.00		1		#224
			-40.00		1		#251
			-30.00		1		#278
			-20.00		1		#305
			-10.00		1		#332
			0.00		1		#359
			10.00		1		#386
			20.00		1		#413
			30.00		1		#440
			40.00		1		#467
			50.00		1		#494
			60.00		1		#521
			70.00		1		#548
			80.00		1		#575
			90.00		1		#602
			100.00		500.0E-03		#629
			110.00		0		#656
			120.00		0		#683
			130.00		0		#710
		END_DATA
	END_SCAN  8
	BEGIN_SCAN  9
		TASK_NAME=DOSE
		GROUP_NAME=LR_29.2
		PROGRAM=BeamAdjust 1.6.1.85
		MEAS_DATE=24-Jul-2014 12:22:46
		LINAC=Elekta
		MODALITY=X
		INPLANE_AXIS_DIR=TARGET_GUN
		CROSSPLANE_AXIS_DIR=LEFT_RIGHT
		DEPTH_AXIS_DIR=UP_DOWN
		ENERGY=6.00
		SSD=1000.00
		WEDGE=None
		FIELD_INPLANE=200.00
		FIELD_CROSSPLANE=200.00
		FIELD_TYPE=RECTANGULAR
		GANTRY=0.00
		GANTRY_UPRIGHT_POSITION=0
		GANTRY_ROTATION=CW
		COLL_ANGLE=0.00
		COLL_OFFSET_INPLANE=0.00
		COLL_OFFSET_CROSSPLANE=0.00
		SCAN_DEVICE=OCTAVIUS
		ELECTROMETER=DETECTOR_INTERFACE
		DETECTOR=OCTAVIUS_729
		DETECTOR_SN=000535
		SCAN_CURVETYPE=CROSSPLANE_PROFILE
		SCAN_DEPTH=0.00
		SCAN_OFFAXIS_INPLANE=-50.00
		SCAN_ANGLE=0.00
		SCAN_DIAGONAL=NOT_DIAGONAL
		MEAS_PRESET=TIME_PRESET
		MEAS_TIME=29.200
		MEAS_UNIT=GY
		PRESSURE=1013.25
		TEMPERATURE=20.00
		NORM_TEMPERATURE=20.00
		CORRECTION_FACTOR=1.0000
		CORRECTIONS=AIR_DENSITY_CORR;
		BEGIN_DATA
			-130.00		0		#9
			-120.00		0		#36
			-110.00		0		#63
			-100.00		500.0E-03		#90
			-90.00		1		#117
			-80.00		1		#144
			-70.00		1		#171
			-60.00		1		#198
			-50.00		1		#225
			-40.00		1		#252
			-30.00		1		#279
			-20.00		1		#306
			-10.00		1		#333
			0.00		1		#360
			10.00		1		#387
			20.00		1		#414
			30.00		1		#441
			40.00		1		#468
			50.00		1		#495
			60.00		1		#522
			70.00		1		#549
			80.00		1		#576
			90.00		1		#603
			100.00		500.0E-03		#630
			110.00		0		#657
			120.00		0		#684
			130.00		0		#711
		END_DATA
	END_SCAN  9
	BEGIN_SCAN  10
		TASK_NAME=DOSE
		GROUP_NAME=LR_29.2
		PROGRAM=BeamAdjust 1.6.1.85
		MEAS_DATE=24-Jul-2014 12:22:46
		LINAC=Elekta
		MODALITY=X
		INPLANE_AXIS_DIR=TARGET_GUN
		CROSSPLANE_AXIS_DIR=LEFT_RIGHT
		DEPTH_AXIS_DIR=UP_DOWN
		ENERGY=6.00
		SSD=1000.00
		WEDGE=None
		FIELD_INPLANE=200.00
		FIELD_CROSSPLANE=200.00
		FIELD_TYPE=RECTANGULAR
		GANTRY=0.00
		GANTRY_UPRIGHT_POSITION=0
		GANTRY_ROTATION=CW
		COLL_ANGLE=0.00
		COLL_OFFSET_INPLANE=0.00
		COLL_OFFSET_CROSSPLANE=0.00
		SCAN_DEVICE=OCTAVIUS
		ELECTROMETER=DETECTOR_INTERFACE
		DETECTOR=OCTAVIUS_729
		DETECTOR_SN=000535
		SCAN_CURVETYPE=CROSSPLANE_PROFILE
		SCAN_DEPTH=0.00
		SCAN_OFFAXIS_INPLANE=-40.00
		SCAN_ANGLE=0.00
		SCAN_DIAGONAL=NOT_DIAGONAL
		MEAS_PRESET=TIME_PRESET
		MEAS_TIME=29.200
		MEAS_UNIT=GY
		PRESSURE=1013.25
		TEMPERATURE=20.00
		NORM_TEMPERATURE=20.00
		CORRECTION_FACTOR=1.0000
		CORRECTIONS=AIR_DENSITY_CORR;
		BEGIN_DATA
			-130.00		0		#10
			-120.00		0		#37
			-110.00		0		#64
			-100.00		500.0E-03		#91
			-90.00		1		#118
			-80.00		1		#145
			-70.00		1		#172
			-60.00		1		#199
			-50.00		1		#226
			-40.00		1		#253
			-30.00		1		#280
			-20.00		1		#307
			-10.00		1		#334
			0.00		1		#361
			10.00		1		#388
			20.00		1		#415
			30.00		1		#442
			40.00		1		#469
			50.00		1		#496
			60.00		1		#523
			70.00		1		#550
			80.00		1		#577
			90.00		1		#604
			100.00		500.0E-03		#631
			110.00		0		#658
			120.00		0		#685
			130.00		0		#712
		END_DATA
	END_SCAN  10
	BEGIN_SCAN  11
		TASK_NAME=DOSE
		GROUP_NAME=LR_29.2
		PROGRAM=BeamAdjust 1.6.1.85
		MEAS_DATE=24-Jul-2014 12:22:46
		LINAC=Elekta
		MODALITY=X
		INPLANE_AXIS_DIR=TARGET_GUN
		CROSSPLANE_AXIS_DIR=LEFT_RIGHT
		DEPTH_AXIS_DIR=UP_DOWN
		ENERGY=6.00
		SSD=1000.00
		WEDGE=None
		FIELD_INPLANE=200.00
		FIELD_CROSSPLANE=200.00
		FIELD_TYPE=RECTANGULAR
		GANTRY=0.00
		GANTRY_UPRIGHT_POSITION=0
		GANTRY_ROTATION=CW
		COLL_ANGLE=0.00
		COLL_OFFSET_INPLANE=0.00
		COLL_OFFSET_CROSSPLANE=0.00
		SCAN_DEVICE=OCTAVIUS
		ELECTROMETER=DETECTOR_INTERFACE
		DETECTOR=OCTAVIUS_729
		DETECTOR_SN=000535
		SCAN_CURVETYPE=CROSSPLANE_PROFILE
		SCAN_DEPTH=0.00
		SCAN_OFFAXIS_INPLANE=-30.00
		SCAN_ANGLE=0.00
		SCAN_DIAGONAL=NOT_DIAGONAL
		MEAS_PRESET=TIME_PRESET
		MEAS_TIME=29.200
		MEAS_UNIT=GY
		PRESSURE=1013.25
		TEMPERATURE=20.00
		NORM_TEMPERATURE=20.00
		CORRECTION_FACTOR=1.0000
		CORRECTIONS=AIR_DENSITY_CORR;
		BEGIN_DATA
			-130.00		0		#11
			-120.00		0		#38
			-110.00		0		#65
			-100.00		500.0E-03		#92
			-90.00		1		#119
			-80.00		1		#146
			-70.00		1		#173
			-60.00		1		#200
			-50.00		1		#227
			-40.00		1		#254
			-30.00		1		#281
			-20.00		1		#308
			-10.00		1		#335
			0.00		1		#362
			10.00		1		#389
			20.00		1		#416
			30.00		1		#443
			40.00		1		#470
			50.00		1		#497
			60.00		1		#524
			70.00		1		#551
			80.00		1		#578
			90.00		1		#605
			100.00		500.0E-03		#632
			110.00		0		#659
			120.00		0		#686
			130.00		0		#713
		END_DATA
	END_SCAN  11
	BEGIN_SCAN  12
		TASK_NAME=DOSE
		GROUP_NAME=LR_29.2
		PROGRAM=BeamAdjust 1.6.1.85
		MEAS_DATE=24-Jul-2014 12:22:46
		LINAC=Elekta
		MODALITY=X
		INPLANE_AXIS_DIR=TARGET_GUN
		CROSSPLANE_AXIS_DIR=LEFT_RIGHT
		DEPTH_AXIS_DIR=UP_DOWN
		ENERGY=6.00
		SSD=1000.00
		WEDGE=None
		FIELD_INPLANE=200.00
		FIELD_CROSSPLANE=200.00
		FIELD_TYPE=RECTANGULAR
		GANTRY=0.00
		GANTRY_UPRIGHT_POSITION=0
		GANTRY_ROTATION=CW
		COLL_ANGLE=0.00
		COLL_OFFSET_INPLANE=0.00
		COLL_OFFSET_CROSSPLANE=0.00
		SCAN_DEVICE=OCTAVIUS
		ELECTROMETER=DETECTOR_INTERFACE
		DETECTOR=OCTAVIUS_729
		DETECTOR_SN=000535
		SCAN_CURVETYPE=CROSSPLANE_PROFILE
		SCAN_DEPTH=0.00
		SCAN_OFFAXIS_INPLANE=-20.00
		SCAN_ANGLE=0.00
		SCAN_DIAGONAL=NOT_DIAGONAL
		MEAS_PRESET=TIME_PRESET
		MEAS_TIME=29.200
		MEAS_UNIT=GY
		PRESSURE=1013.25
		TEMPERATURE=20.00
		NORM_TEMPERATURE=20.00
		CORRECTION_FACTOR=1.0000
		CORRECTIONS=AIR_DENSITY_CORR;
		BEGIN_DATA
			-130.00		0		#12
			-120.00		0		#39
			-110.00		0		#66
			-100.00		500.0E-03		#93
			-90.00		1		#120
			-80.00		1		#147
			-70.00		1		#174
			-60.00		1		#201
			-50.00		1		#228
			-40.00		1		#255
			-30.00		1		#282
			-20.00		1		#309
			-10.00		1		#336
			0.00		1		#363
			10.00		1		#390
			20.00		1		#417
			30.00		1		#444
			40.00		1		#471
			50.00		1		#498
			60.00		1		#525
			70.00		1		#552
			80.00		1		#579
			90.00		1		#606
			100.00		500.0E-03		#633
			110.00		0		#660
			120.00		0		#687
			130.00		0		#714
		END_DATA
	END_SCAN  12
	BEGIN_SCAN  13
		TASK_NAME=DOSE
		GROUP_NAME=LR_29.2
		PROGRAM=BeamAdjust 1.6.1.85
		MEAS_DATE=24-Jul-2014 12:22:46
		LINAC=Elekta
		MODALITY=X
		INPLANE_AXIS_DIR=TARGET_GUN
		CROSSPLANE_AXIS_DIR=LEFT_RIGHT
		DEPTH_AXIS_DIR=UP_DOWN
		ENERGY=6.00
		SSD=1000.00
		WEDGE=None
		FIELD_INPLANE=200.00
		FIELD_CROSSPLANE=200.00
		FIELD_TYPE=RECTANGULAR
		GANTRY=0.00
		GANTRY_UPRIGHT_POSITION=0
		GANTRY_ROTATION=CW
		COLL_ANGLE=0.00
		COLL_OFFSET_INPLANE=0.00
		COLL_OFFSET_CROSSPLANE=0.00
		SCAN_DEVICE=OCTAVIUS
		ELECTROMETER=DETECTOR_INTERFACE
		DETECTOR=OCTAVIUS_729
		DETECTOR_SN=000535
		SCAN_CURVETYPE=CROSSPLANE_PROFILE
		SCAN_DEPTH=0.00
		SCAN_OFFAXIS_INPLANE=-10.00
		SCAN_ANGLE=0.00
		SCAN_DIAGONAL=NOT_DIAGONAL
		MEAS_PRESET=TIME_PRESET
		MEAS_TIME=29.200
		MEAS_UNIT=GY
		PRESSURE=1013.25
		TEMPERATURE=20.00
		NORM_TEMPERATURE=20.00
		CORRECTION_FACTOR=1.0000
		CORRECTIONS=AIR_DENSITY_CORR;
		BEGIN_DATA
			-130.00		0		#13
			-120.00		0		#40
			-110.00		0		#67
			-100.00		500.0E-03		#94
			-90.00		1		#121
			-80.00		1		#148
			-70.00		1		#175
			-60.00		1		#202
			-50.00		1		#229
			-40.00		1		#256
			-30.00		1		#283
			-20.00		1		#310
			-10.00		1		#337
			0.00		1		#364
			10.00		1		#391
			20.00		1		#418
			30.00		1		#445
			40.00		1		#472
			50.00		1		#499
			60.00		1		#526
			70.00		1		#553
			80.00		1		#580
			90.00		1		#607
			100.00		500.0E-03		#634
			110.00		0		#661
			120.00		0		#688
			130.00		0		#715
		END_DATA
	END_SCAN  13
	BEGIN_SCAN  14
		TASK_NAME=DOSE
		GROUP_NAME=LR_29.2
		PROGRAM=BeamAdjust 1.6.1.85
		MEAS_DATE=24-Jul-2014 12:22:46
		LINAC=Elekta
		MODALITY=X
		INPLANE_AXIS_DIR=TARGET_GUN
		CROSSPLANE_AXIS_DIR=LEFT_RIGHT
		DEPTH_AXIS_DIR=UP_DOWN
		ENERGY=6.00
		SSD=1000.00
		WEDGE=None
		FIELD_INPLANE=200.00
		FIELD_CROSSPLANE=200.00
		FIELD_TYPE=RECTANGULAR
		GANTRY=0.00
		GANTRY_UPRIGHT_POSITION=0
		GANTRY_ROTATION=CW
		COLL_ANGLE=0.00
		COLL_OFFSET_INPLANE=0.00
		COLL_OFFSET_CROSSPLANE=0.00
		SCAN_DEVICE=OCTAVIUS
		ELECTROMETER=DETECTOR_INTERFACE
		DETECTOR=OCTAVIUS_729
		DETECTOR_SN=000535
		SCAN_CURVETYPE=CROSSPLANE_PROFILE
		SCAN_DEPTH=0.00
		SCAN_OFFAXIS_INPLANE=0.00
		SCAN_ANGLE=0.00
		SCAN_DIAGONAL=NOT_DIAGONAL
		MEAS_PRESET=TIME_PRESET
		MEAS_TIME=29.200
		MEAS_UNIT=GY
		PRESSURE=1013.25
		TEMPERATURE=20.00
		NORM_TEMPERATURE=20.00
		CORRECTION_FACTOR=1.0000
		CORRECTIONS=AIR_DENSITY_CORR;
		BEGIN_DATA
			-130.00		0		#14
			-120.00		0		#41
			-110.00		0		#68
			-100.00		500.0E-03		#95
			-90.00		1		#122
			-80.00		1		#149
			-70.00		1		#176
			-60.00		1		#203
			-50.00		1		#230
			-40.00		1		#257
			-30.00		1		#284
			-20.00		1		#311
			-10.00		1		#338
			0.00		1		#365
			10.00		1		#392
			20.00		1		#419
			30.00		1		#446
			40.00		1		#473
			50.00		1		#500
			60.00		1		#527
			70.00		1		#554
			80.00		1		#581
			90.00		1		#608
			100.00		500.0E-03		#635
			110.00		0		#662
			120.00		0		#689
			130.00		0		#716
		END_DATA
	END_SCAN  14
	BEGIN_SCAN  15
		TASK_NAME=DOSE
		GROUP_NAME=LR_29.2
		PROGRAM=BeamAdjust 1.6.1.85
		MEAS_DATE=24-Jul-2014 12:22:46
		LINAC=Elekta
		MODALITY=X
		INPLANE_AXIS_DIR=TARGET_GUN
		CROSSPLANE_AXIS_DIR=LEFT_RIGHT
		DEPTH_AXIS_DIR=UP_DOWN
		ENERGY=6.00
		SSD=1000.00
		WEDGE=None
		FIELD_INPLANE=200.00
		FIELD_CROSSPLANE=200.00
		FIELD_TYPE=RECTANGULAR
		GANTRY=0.00
		GANTRY_UPRIGHT_POSITION=0
		GANTRY_ROTATION=CW
		COLL_ANGLE=0.00
		COLL_OFFSET_INPLANE=0.00
		COLL_OFFSET_CROSSPLANE=0.00
		SCAN_DEVICE=OCTAVIUS
		ELECTROMETER=DETECTOR_INTERFACE
		DETECTOR=OCTAVIUS_729
		DETECTOR_SN=000535
		SCAN_CURVETYPE=CROSSPLANE_PROFILE
		SCAN_DEPTH=0.00
		SCAN_OFFAXIS_INPLANE=10.00
		SCAN_ANGLE=0.00
		SCAN_DIAGONAL=NOT_DIAGONAL
		MEAS_PRESET=TIME_PRESET
		MEAS_TIME=29.200
		MEAS_UNIT=GY
		PRESSURE=1013.25
		TEMPERATURE=20.00
		NORM_TEMPERATURE=20.00
		CORRECTION_FACTOR=1.0000
		CORRECTIONS=AIR_DENSITY_CORR;
		BEGIN_DATA
			-130.00		0		#15
			-120.00		0		#42
			-110.00		0		#69
			-100.00		500.0E-03		#96
			-90.00		1		#123
			-80.00		1		#150
			-70.00		1		#177
			-60.00		1		#204
			-50.00		1		#231
			-40.00		1		#258
			-30.00		1		#285
			-20.00		1		#312
			-10.00		1		#339
			0.00		1		#366
			10.00		1		#393
			20.00		1		#420
			30.00		1		#447
			40.00		1		#474
			50.00		1		#501
			60.00		1		#528
			70.00		1		#555
			80.00		1		#582
			90.00		1		#609
			100.00		500.0E-03		#636
			110.00		0		#663
			120.00		0		#690
			130.00		0		#717
		END_DATA
	END_SCAN  15
	BEGIN_SCAN  16
		TASK_NAME=DOSE
		GROUP_NAME=LR_29.2
		PROGRAM=BeamAdjust 1.6.1.85
		MEAS_DATE=24-Jul-2014 12:22:46
		LINAC=Elekta
		MODALITY=X
		INPLANE_AXIS_DIR=TARGET_GUN
		CROSSPLANE_AXIS_DIR=LEFT_RIGHT
		DEPTH_AXIS_DIR=UP_DOWN
		ENERGY=6.00
		SSD=1000.00
		WEDGE=None
		FIELD_INPLANE=200.00
		FIELD_CROSSPLANE=200.00
		FIELD_TYPE=RECTANGULAR
		GANTRY=0.00
		GANTRY_UPRIGHT_POSITION=0
		GANTRY_ROTATION=CW
		COLL_ANGLE=0.00
		COLL_OFFSET_INPLANE=0.00
		COLL_OFFSET_CROSSPLANE=0.00
		SCAN_DEVICE=OCTAVIUS
		ELECTROMETER=DETECTOR_INTERFACE
		DETECTOR=OCTAVIUS_729
		DETECTOR_SN=000535
		SCAN_CURVETYPE=CROSSPLANE_PROFILE
		SCAN_DEPTH=0.00
		SCAN_OFFAXIS_INPLANE=20.00
		SCAN_ANGLE=0.00
		SCAN_DIAGONAL=NOT_DIAGONAL
		MEAS_PRESET=TIME_PRESET
		MEAS_TIME=29.200
		MEAS_UNIT=GY
		PRESSURE=1013.25
		TEMPERATURE=20.00
		NORM_TEMPERATURE=20.00
		CORRECTION_FACTOR=1.0000
		CORRECTIONS=AIR_DENSITY_CORR;
		BEGIN_DATA
			-130.00		0		#16
			-120.00		0		#43
			-110.00		0		#70
			-100.00		500.0E-03		#97
			-90.00		1		#124
			-80.00		1		#151
			-70.00		1		#178
			-60.00		1		#205
			-50.00		1		#232
			-40.00		1		#259
			-30.00		1		#286
			-20.00		1		#313
			-10.00		1		#340
			0.00		1		#367
			10.00		1		#394
			20.00		1		#421
			30.00		1		#448
			40.00		1		#475
			50.00		1		#502
			60.00		1		#529
			70.00		1		#556
			80.00		1		#583
			90.00		1		#610
			100.00		500.0E-03		#637
			110.00		0		#664
			120.00		0		#691
			130.00		0		#718
		END_DATA
	END_SCAN  16
	BEGIN_SCAN  17
		TASK_NAME=DOSE
		GROUP_NAME=LR_29.2
		PROGRAM=BeamAdjust 1.6.1.85
		MEAS_DATE=24-Jul-2014 12:22:46
		LINAC=Elekta
		MODALITY=X
		INPLANE_AXIS_DIR=TARGET_GUN
		CROSSPLANE_AXIS_DIR=LEFT_RIGHT
		DEPTH_AXIS_DIR=UP_DOWN
		ENERGY=6.00
		SSD=1000.00
		WEDGE=None
		FIELD_INPLANE=200.00
		FIELD_CROSSPLANE=200.00
		FIELD_TYPE=RECTANGULAR
		GANTRY=0.00
		GANTRY_UPRIGHT_POSITION=0
		GANTRY_ROTATION=CW
		COLL_ANGLE=0.00
		COLL_OFFSET_INPLANE=0.00
		COLL_OFFSET_CROSSPLANE=0.00
		SCAN_DEVICE=OCTAVIUS
		ELECTROMETER=DETECTOR_INTERFACE
		DETECTOR=OCTAVIUS_729
		DETECTOR_SN=000535
		SCAN_CURVETYPE=CROSSPLANE_PROFILE
		SCAN_DEPTH=0.00
		SCAN_OFFAXIS_INPLANE=30.00
		SCAN_ANGLE=0.00
		SCAN_DIAGONAL=NOT_DIAGONAL
		MEAS_PRESET=TIME_PRESET
		MEAS_TIME=29.200
		MEAS_UNIT=GY
		PRESSURE=1013.25
		TEMPERATURE=20.00
		NORM_TEMPERATURE=20.00
		CORRECTION_FACTOR=1.0000
		CORRECTIONS=AIR_DENSITY_CORR;
		BEGIN_DATA
			-130.00		0		#17
			-120.00		0		#44
			-110.00		0		#71
			-100.00		500.0E-03		#98
			-90.00		1		#125
			-80.00		1		#152
			-70.00		1		#179
			-60.00		1		#206
			-50.00		1		#233
			-40.00		1		#260
			-30.00		1		#287
			-20.00		1		#314
			-10.00		1		#341
			0.00		1		#368
			10.00		1		#395
			20.00		1		#422
			30.00		1		#449
			40.00		1		#476
			50.00		1		#503
			60.00		1		#530
			70.00		1		#557
			80.00		1		#584
			90.00		1		#611
			100.00		500.0E-03		#638
			110.00		0		#665
			120.00		0		#692
			130.00		0		#719
		END_DATA
	END_SCAN  17
	BEGIN_SCAN  18
		TASK_NAME=DOSE
		GROUP_NAME=LR_29.2
		PROGRAM=BeamAdjust 1.6.1.85
		MEAS_DATE=24-Jul-2014 12:22:46
		LINAC=Elekta
		MODALITY=X
		INPLANE_AXIS_DIR=TARGET_GUN
		CROSSPLANE_AXIS_DIR=LEFT_RIGHT
		DEPTH_AXIS_DIR=UP_DOWN
		ENERGY=6.00
		SSD=1000.00
		WEDGE=None
		FIELD_INPLANE=200.00
		FIELD_CROSSPLANE=200.00
		FIELD_TYPE=RECTANGULAR
		GANTRY=0.00
		GANTRY_UPRIGHT_POSITION=0
		GANTRY_ROTATION=CW
		COLL_ANGLE=0.00
		COLL_OFFSET_INPLANE=0.00
		COLL_OFFSET_CROSSPLANE=0.00
		SCAN_DEVICE=OCTAVIUS
		ELECTROMETER=DETECTOR_INTERFACE
		DETECTOR=OCTAVIUS_729
		DETECTOR_SN=000535
		SCAN_CURVETYPE=CROSSPLANE_PROFILE
		SCAN_DEPTH=0.00
		SCAN_OFFAXIS_INPLANE=40.00
		SCAN_ANGLE=0.00
		SCAN_DIAGONAL=NOT_DIAGONAL
		MEAS_PRESET=TIME_PRESET
		MEAS_TIME=29.200
		MEAS_UNIT=GY
		PRESSURE=1013.25
		TEMPERATURE=20.00
		NORM_TEMPERATURE=20.00
		CORRECTION_FACTOR=1.0000
		CORRECTIONS=AIR_DENSITY_CORR;
		BEGIN_DATA
			-130.00		0		#18
			-120.00		0		#45
			-110.00		0		#72
			-100.00		500.0E-03		#99
			-90.00		1		#126
			-80.00		1		#153
			-70.00		1		#180
			-60.00		1		#207
			-50.00		1		#234
			-40.00		1		#261
			-30.00		1		#288
			-20.00		1		#315
			-10.00		1		#342
			0.00		1		#369
			10.00		1		#396
			20.00		1		#423
			30.00		1		#450
			40.00		1		#477
			50.00		1		#504
			60.00		1		#531
			70.00		1		#558
			80.00		1		#585
			90.00		1		#612
			100.00		500.0E-03		#639
			110.00		0		#666
			120.00		0		#693
			130.00		0		#720
		END_DATA
	END_SCAN  18
	BEGIN_SCAN  19
		TASK_NAME=DOSE
		GROUP_NAME=LR_29.2
		PROGRAM=BeamAdjust 1.6.1.85
		MEAS_DATE=24-Jul-2014 12:22:46
		LINAC=Elekta
		MODALITY=X
		INPLANE_AXIS_DIR=TARGET_GUN
		CROSSPLANE_AXIS_DIR=LEFT_RIGHT
		DEPTH_AXIS_DIR=UP_DOWN
		ENERGY=6.00
		SSD=1000.00
		WEDGE=None
		FIELD_INPLANE=200.00
		FIELD_CROSSPLANE=200.00
		FIELD_TYPE=RECTANGULAR
		GANTRY=0.00
		GANTRY_UPRIGHT_POSITION=0
		GANTRY_ROTATION=CW
		COLL_ANGLE=0.00
		COLL_OFFSET_INPLANE=0.00
		COLL_OFFSET_CROSSPLANE=0.00
		SCAN_DEVICE=OCTAVIUS
		ELECTROMETER=DETECTOR_INTERFACE
		DETECTOR=OCTAVIUS_729
		DETECTOR_SN=000535
		SCAN_CURVETYPE=CROSSPLANE_PROFILE
		SCAN_DEPTH=0.00
		SCAN_OFFAXIS_INPLANE=50.00
		SCAN_ANGLE=0.00
		SCAN_DIAGONAL=NOT_DIAGONAL
		MEAS_PRESET=TIME_PRESET
		MEAS_TIME=29.200
		MEAS_UNIT=GY
		PRESSURE=1013.25
		TEMPERATURE=20.00
		NORM_TEMPERATURE=20.00
		CORRECTION_FACTOR=1.0000
		CORRECTIONS=AIR_DENSITY_CORR;
		BEGIN_DATA
			-130.00		0		#19
			-120.00		0		#46
			-110.00		0		#73
			-100.00		500.0E-03		#100
			-90.00		1		#127
			-80.00		1		#154
			-70.00		1		#181
			-60.00		1		#208
			-50.00		1		#235
			-40.00		1		#262
			-30.00		1		#289
			-20.00		1		#316
			-10.00		1		#343
			0.00		1		#370
			10.00		1		#397
			20.00		1		#424
			30.00		1		#451
			40.00		1		#478
			50.00		1		#505
			60.00		1		#532
			70.00		1		#559
			80.00		1		#586
			90.00		1		#613
			100.00		500.0E-03		#640
			110.00		0		#667
			120.00		0		#694
			130.00		0		#721
		END_DATA
	END_SCAN  19
	BEGIN_SCAN  20
		TASK_NAME=DOSE
		GROUP_NAME=LR_29.2
		PROGRAM=BeamAdjust 1.6.1.85
		MEAS_DATE=24-Jul-2014 12:22:46
		LINAC=Elekta
		MODALITY=X
		INPLANE_AXIS_DIR=TARGET_GUN
		CROSSPLANE_AXIS_DIR=LEFT_RIGHT
		DEPTH_AXIS_DIR=UP_DOWN
		ENERGY=6.00
		SSD=1000.00
		WEDGE=None
		FIELD_INPLANE=200.00
		FIELD_CROSSPLANE=200.00
		FIELD_TYPE=RECTANGULAR
		GANTRY=0.00
		GANTRY_UPRIGHT_POSITION=0
		GANTRY_ROTATION=CW
		COLL_ANGLE=0.00
		COLL_OFFSET_INPLANE=0.00
		COLL_OFFSET_CROSSPLANE=0.00
		SCAN_DEVICE=OCTAVIUS
		ELECTROMETER=DETECTOR_INTERFACE
		DETECTOR=OCTAVIUS_729
		DETECTOR_SN=000535
		SCAN_CURVETYPE=CROSSPLANE_PROFILE
		SCAN_DEPTH=0.00
		SCAN_OFFAXIS_INPLANE=60.00
		SCAN_ANGLE=0.00
		SCAN_DIAGONAL=NOT_DIAGONAL
