BEGIN_SCAN_DATA
	FORMAT=CC-Export V1.9                  
	FILE_CREATION_DATE=24-Jul-2014 12:23:35
	LAST_MODIFIED=24-Jul-2014 12:23:35
	BEGIN_SCAN  1
		TASK_NAME=DOSE
		GROUP_NAME=LR_29.2
		PROGRAM=BeamAdjust 1.6.1.85
		MEAS_DATE=24-Jul-2014 12:22:46
		LINAC=Elekta
		MODALITY=X
		INPLANE_AXIS_DIR=TARGET_GUN
		CROSSPLANE_AXIS_DIR=LEFT_RIGHT
		DEPTH_AXIS_DIR=UP_DOWN
		ENERGY=6.00
		SSD=1000.00
		WEDGE=None
		FIELD_INPLANE=200.00
		FIELD_CROSSPLANE=200.00
		FIELD_TYPE=RECTANGULAR
		GANTRY=0.00
		GANTRY_UPRIGHT_POSITION=0
		GANTRY_ROTATION=CW
		COLL_ANGLE=0.00
		COLL_OFFSET_INPLANE=0.00
		COLL_OFFSET_CROSSPLANE=0.00
		SCAN_DEVICE=OCTAVIUS
		ELECTROMETER=DETECTOR_INTERFACE
		DETECTOR=OCTAVIUS_729
		DETECTOR_SN=000535
		SCAN_CURVETYPE=CROSSPLANE_PROFILE
		SCAN_DEPTH=0.00
		SCAN_OFFAXIS_INPLANE=-130.00
		SCAN_ANGLE=0.00
		SCAN_DIAGONAL=NOT_DIAGONAL
		MEAS_PRESET=TIME_PRESET
		MEAS_TIME=29.200
		MEAS_UNIT=GY
		PRESSURE=1013.25
		TEMPERATURE=20.00
		NORM_TEMPERATURE=20.00
		CORRECTION_FACTOR=1.0000
		CORRECTIONS=AIR_DENSITY_CORR;
		BEGIN_DATA
			-130.00		23.012E-03		#1
			-120.00		25.901E-03		#28
			-110.00		28.331E-03		#55
			-100.00		31.320E-03		#82
			-90.00		33.799E-03		#109
			-80.00		36.066E-03		#136
			-70.00		37.937E-03		#163
			-60.00		39.592E-03		#190
			-50.00		40.886E-03		#217
			-40.00		41.993E-03		#244
			-30.00		42.985E-03		#271
			-20.00		44.350E-03		#298
			-10.00		45.641E-03		#325
			0.00		45.641E-03		#352
			10.00		45.593E-03		#379
			20.00		44.632E-03		#406
			30.00		43.397E-03		#433
			40.00		42.472E-03		#460
			50.00		41.386E-03		#487
			60.00		40.288E-03		#514
			70.00		38.791E-03		#541
			80.00		36.857E-03		#568
			90.00		34.840E-03		#595
			100.00		32.447E-03		#622
			110.00		29.568E-03		#649
			120.00		27.418E-03		#676
			130.00		24.763E-03		#703
		END_DATA
	END_SCAN  1
	BEGIN_SCAN  2
		TASK_NAME=DOSE
		GROUP_NAME=LR_29.2
		PROGRAM=BeamAdjust 1.6.1.85
		MEAS_DATE=24-Jul-2014 12:22:46
		LINAC=Elekta
		MODALITY=X
		INPLANE_AXIS_DIR=TARGET_GUN
		CROSSPLANE_AXIS_DIR=LEFT_RIGHT
		DEPTH_AXIS_DIR=UP_DOWN
		ENERGY=6.00
		SSD=1000.00
		WEDGE=None
		FIELD_INPLANE=200.00
		FIELD_CROSSPLANE=200.00
		FIELD_TYPE=RECTANGULAR
		GANTRY=0.00
		GANTRY_UPRIGHT_POSITION=0
		GANTRY_ROTATION=CW
		COLL_ANGLE=0.00
		COLL_OFFSET_INPLANE=0.00
		COLL_OFFSET_CROSSPLANE=0.00
		SCAN_DEVICE=OCTAVIUS
		ELECTROMETER=DETECTOR_INTERFACE
		DETECTOR=OCTAVIUS_729
		DETECTOR_SN=000535
		SCAN_CURVETYPE=CROSSPLANE_PROFILE
		SCAN_DEPTH=0.00
		SCAN_OFFAXIS_INPLANE=-120.00
		SCAN_ANGLE=0.00
		SCAN_DIAGONAL=NOT_DIAGONAL
		MEAS_PRESET=TIME_PRESET
		MEAS_TIME=29.200
		MEAS_UNIT=GY
		PRESSURE=1013.25
		TEMPERATURE=20.00
		NORM_TEMPERATURE=20.00
		CORRECTION_FACTOR=1.0000
		CORRECTIONS=AIR_DENSITY_CORR;
		BEGIN_DATA
			-130.00		27.489E-03		#2
			-120.00		31.019E-03		#29
			-110.00		34.446E-03		#56
			-100.00		38.464E-03		#83
			-90.00		42.187E-03		#110
			-80.00		44.982E-03		#137
			-70.00		47.684E-03		#164
			-60.00		49.863E-03		#191
			-50.00		51.190E-03		#218
			-40.00		52.586E-03		#245
			-30.00		53.650E-03		#272
			-20.00		55.177E-03		#299
			-10.00		56.626E-03		#326
			0.00		56.960E-03		#353
			10.00		56.634E-03		#380
			20.00		55.621E-03		#407
			30.00		54.132E-03		#434
			40.00		52.927E-03		#461
			50.00		51.477E-03		#488
			60.00		50.207E-03		#515
			70.00		48.354E-03		#542
			80.00		45.693E-03		#569
			90.00		42.974E-03		#596
			100.00		39.336E-03		#623
			110.00		35.586E-03		#650
			120.00		32.142E-03		#677
			130.00		28.957E-03		#704
		END_DATA
	END_SCAN  2
	BEGIN_SCAN  3
		TASK_NAME=DOSE
		GROUP_NAME=LR_29.2
		PROGRAM=BeamAdjust 1.6.1.85
		MEAS_DATE=24-Jul-2014 12:22:46
		LINAC=Elekta
		MODALITY=X
		INPLANE_AXIS_DIR=TARGET_GUN
		CROSSPLANE_AXIS_DIR=LEFT_RIGHT
		DEPTH_AXIS_DIR=UP_DOWN
		ENERGY=6.00
		SSD=1000.00
		WEDGE=None
		FIELD_INPLANE=200.00
		FIELD_CROSSPLANE=200.00
		FIELD_TYPE=RECTANGULAR
		GANTRY=0.00
		GANTRY_UPRIGHT_POSITION=0
		GANTRY_ROTATION=CW
		COLL_ANGLE=0.00
		COLL_OFFSET_INPLANE=0.00
		COLL_OFFSET_CROSSPLANE=0.00
		SCAN_DEVICE=OCTAVIUS
		ELECTROMETER=DETECTOR_INTERFACE
		DETECTOR=OCTAVIUS_729
		DETECTOR_SN=000535
		SCAN_CURVETYPE=CROSSPLANE_PROFILE
		SCAN_DEPTH=0.00
		SCAN_OFFAXIS_INPLANE=-110.00
		SCAN_ANGLE=0.00
		SCAN_DIAGONAL=NOT_DIAGONAL
		MEAS_PRESET=TIME_PRESET
		MEAS_TIME=29.200
		MEAS_UNIT=GY
		PRESSURE=1013.25
		TEMPERATURE=20.00
		NORM_TEMPERATURE=20.00
		CORRECTION_FACTOR=1.0000
		CORRECTIONS=AIR_DENSITY_CORR;
		BEGIN_DATA
			-130.00		32.291E-03		#3
			-120.00		37.246E-03		#30
			-110.00		42.642E-03		#57
			-100.00		52.582E-03		#84
			-90.00		60.690E-03		#111
			-80.00		65.507E-03		#138
			-70.00		68.897E-03		#165
			-60.00		71.432E-03		#192
			-50.00		73.320E-03		#219
			-40.00		74.975E-03		#246
			-30.00		76.374E-03		#273
			-20.00		78.152E-03		#300
			-10.00		79.314E-03		#327
			0.00		79.888E-03		#354
			10.00		79.555E-03		#381
			20.00		78.410E-03		#408
			30.00		77.154E-03		#435
			40.00		75.733E-03		#462
			50.00		74.352E-03		#489
			60.00		72.568E-03		#516
			70.00		70.179E-03		#543
			80.00		66.848E-03		#570
			90.00		62.475E-03		#597
			100.00		54.321E-03		#624
			110.00		44.160E-03		#651
			120.00		38.480E-03		#678
			130.00		33.899E-03		#705
		END_DATA
	END_SCAN  3
	BEGIN_SCAN  4
		TASK_NAME=DOSE
		GROUP_NAME=LR_29.2
		PROGRAM=BeamAdjust 1.6.1.85
		MEAS_DATE=24-Jul-2014 12:22:46
		LINAC=Elekta
		MODALITY=X
		INPLANE_AXIS_DIR=TARGET_GUN
		CROSSPLANE_AXIS_DIR=LEFT_RIGHT
		DEPTH_AXIS_DIR=UP_DOWN
		ENERGY=6.00
		SSD=1000.00
		WEDGE=None
		FIELD_INPLANE=200.00
		FIELD_CROSSPLANE=200.00
		FIELD_TYPE=RECTANGULAR
		GANTRY=0.00
		GANTRY_UPRIGHT_POSITION=0
		GANTRY_ROTATION=CW
		COLL_ANGLE=0.00
		COLL_OFFSET_INPLANE=0.00
		COLL_OFFSET_CROSSPLANE=0.00
		SCAN_DEVICE=OCTAVIUS
		ELECTROMETER=DETECTOR_INTERFACE
		DETECTOR=OCTAVIUS_729
		DETECTOR_SN=000535
		SCAN_CURVETYPE=CROSSPLANE_PROFILE
		SCAN_DEPTH=0.00
		SCAN_OFFAXIS_INPLANE=-100.00
		SCAN_ANGLE=0.00
		SCAN_DIAGONAL=NOT_DIAGONAL
		MEAS_PRESET=TIME_PRESET
		MEAS_TIME=29.200
		MEAS_UNIT=GY
		PRESSURE=1013.25
		TEMPERATURE=20.00
		NORM_TEMPERATURE=20.00
		CORRECTION_FACTOR=1.0000
		CORRECTIONS=AIR_DENSITY_CORR;
		BEGIN_DATA
			-130.00		37.660E-03		#4
			-120.00		45.113E-03		#31
			-110.00		58.204E-03		#58
			-100.00		301.16E-03		#85
			-90.00		480.41E-03		#112
			-80.00		488.07E-03		#139
			-70.00		492.21E-03		#166
			-60.00		496.10E-03		#193
			-50.00		498.33E-03		#220
			-40.00		501.77E-03		#247
			-30.00		503.70E-03		#274
			-20.00		504.49E-03		#301
			-10.00		506.14E-03		#328
			0.00		507.11E-03		#355
			10.00		508.25E-03		#382
			20.00		509.12E-03		#409
			30.00		510.56E-03		#436
			40.00		510.58E-03		#463
			50.00		510.06E-03		#490
			60.00		508.53E-03		#517
			70.00		507.96E-03		#544
			80.00		507.15E-03		#571
			90.00		501.19E-03		#598
			100.00		337.46E-03		#625
			110.00		61.057E-03		#652
			120.00		46.551E-03		#679
			130.00		39.966E-03		#706
		END_DATA
	END_SCAN  4
	BEGIN_SCAN  5
		TASK_NAME=DOSE
		GROUP_NAME=LR_29.2
		PROGRAM=BeamAdjust 1.6.1.85
		MEAS_DATE=24-Jul-2014 12:22:46
		LINAC=Elekta
		MODALITY=X
		INPLANE_AXIS_DIR=TARGET_GUN
		CROSSPLANE_AXIS_DIR=LEFT_RIGHT
		DEPTH_AXIS_DIR=UP_DOWN
		ENERGY=6.00
		SSD=1000.00
		WEDGE=None
		FIELD_INPLANE=200.00
		FIELD_CROSSPLANE=200.00
		FIELD_TYPE=RECTANGULAR
		GANTRY=0.00
		GANTRY_UPRIGHT_POSITION=0
		GANTRY_ROTATION=CW
		COLL_ANGLE=0.00
		COLL_OFFSET_INPLANE=0.00
		COLL_OFFSET_CROSSPLANE=0.00
		SCAN_DEVICE=OCTAVIUS
		ELECTROMETER=DETECTOR_INTERFACE
		DETECTOR=OCTAVIUS_729
		DETECTOR_SN=000535
		SCAN_CURVETYPE=CROSSPLANE_PROFILE
		SCAN_DEPTH=0.00
		SCAN_OFFAXIS_INPLANE=-90.00
		SCAN_ANGLE=0.00
		SCAN_DIAGONAL=NOT_DIAGONAL
		MEAS_PRESET=TIME_PRESET
		MEAS_TIME=29.200
		MEAS_UNIT=GY
		PRESSURE=1013.25
		TEMPERATURE=20.00
		NORM_TEMPERATURE=20.00
		CORRECTION_FACTOR=1.0000
		CORRECTIONS=AIR_DENSITY_CORR;
		BEGIN_DATA
			-130.00		42.407E-03		#5
			-120.00		51.721E-03		#32
			-110.00		71.862E-03		#59
			-100.00		500.88E-03		#86
			-90.00		812.47E-03		#113
			-80.00		821.23E-03		#140
			-70.00		825.40E-03		#167
			-60.00		828.81E-03		#194
			-50.00		829.67E-03		#221
			-40.00		831.72E-03		#248
			-30.00		828.66E-03		#275
			-20.00		827.26E-03		#302
			-10.00		827.36E-03		#329
			0.00		827.10E-03		#356
			10.00		827.10E-03		#383
			20.00		827.47E-03		#410
			30.00		830.69E-03		#437
			40.00		832.09E-03		#464
			50.00		831.11E-03		#491
			60.00		828.59E-03		#518
			70.00		827.91E-03		#545
			80.00		825.99E-03		#572
			90.00		816.56E-03		#599
			100.00		541.04E-03		#626
			110.00		75.639E-03		#653
			120.00		53.616E-03		#680
			130.00		44.876E-03		#707
		END_DATA
	END_SCAN  5
	BEGIN_SCAN  6
		TASK_NAME=DOSE
		GROUP_NAME=LR_29.2
		PROGRAM=BeamAdjust 1.6.1.85
		MEAS_DATE=24-Jul-2014 12:22:46
		LINAC=Elekta
		MODALITY=X
		INPLANE_AXIS_DIR=TARGET_GUN
		CROSSPLANE_AXIS_DIR=LEFT_RIGHT
		DEPTH_AXIS_DIR=UP_DOWN
		ENERGY=6.00
		SSD=1000.00
		WEDGE=None
		FIELD_INPLANE=200.00
		FIELD_CROSSPLANE=200.00
		FIELD_TYPE=RECTANGULAR
		GANTRY=0.00
		GANTRY_UPRIGHT_POSITION=0
		GANTRY_ROTATION=CW
		COLL_ANGLE=0.00
		COLL_OFFSET_INPLANE=0.00
		COLL_OFFSET_CROSSPLANE=0.00
		SCAN_DEVICE=OCTAVIUS
		ELECTROMETER=DETECTOR_INTERFACE
		DETECTOR=OCTAVIUS_729
		DETECTOR_SN=000535
		SCAN_CURVETYPE=CROSSPLANE_PROFILE
		SCAN_DEPTH=0.00
		SCAN_OFFAXIS_INPLANE=-80.00
		SCAN_ANGLE=0.00
		SCAN_DIAGONAL=NOT_DIAGONAL
		MEAS_PRESET=TIME_PRESET
		MEAS_TIME=29.200
		MEAS_UNIT=GY
		PRESSURE=1013.25
		TEMPERATURE=20.00
		NORM_TEMPERATURE=20.00
		CORRECTION_FACTOR=1.0000
		CORRECTIONS=AIR_DENSITY_CORR;
		BEGIN_DATA
			-130.00		45.757E-03		#6
			-120.00		56.176E-03		#33
			-110.00		78.579E-03		#60
			-100.00		509.68E-03		#87
			-90.00		818.65E-03		#114
			-80.00		829.34E-03		#141
			-70.00		834.07E-03		#168
			-60.00		836.10E-03		#195
			-50.00		835.14E-03		#222
			-40.00		834.50E-03		#249
			-30.00		831.68E-03		#276
			-20.00		830.63E-03		#303
			-10.00		829.55E-03		#330
			0.00		831.17E-03		#357
			10.00		829.71E-03		#384
			20.00		830.66E-03		#411
			30.00		832.93E-03		#438
			40.00		833.87E-03		#465
			50.00		836.33E-03		#492
			60.00		837.15E-03		#519
			70.00		836.67E-03		#546
			80.00		833.39E-03		#573
			90.00		822.82E-03		#600
			100.00		544.78E-03		#627
			110.00		80.990E-03		#654
			120.00		57.760E-03		#681
			130.00		48.138E-03		#708
		END_DATA
	END_SCAN  6
	BEGIN_SCAN  7
		TASK_NAME=DOSE
		GROUP_NAME=LR_29.2
		PROGRAM=BeamAdjust 1.6.1.85
		MEAS_DATE=24-Jul-2014 12:22:46
		LINAC=Elekta
		MODALITY=X
		INPLANE_AXIS_DIR=TARGET_GUN
		CROSSPLANE_AXIS_DIR=LEFT_RIGHT
		DEPTH_AXIS_DIR=UP_DOWN
		ENERGY=6.00
		SSD=1000.00
		WEDGE=None
		FIELD_INPLANE=200.00
		FIELD_CROSSPLANE=200.00
		FIELD_TYPE=RECTANGULAR
		GANTRY=0.00
		GANTRY_UPRIGHT_POSITION=0
		GANTRY_ROTATION=CW
		COLL_ANGLE=0.00
		COLL_OFFSET_INPLANE=0.00
		COLL_OFFSET_CROSSPLANE=0.00
		SCAN_DEVICE=OCTAVIUS
		ELECTROMETER=DETECTOR_INTERFACE
		DETECTOR=OCTAVIUS_729
		DETECTOR_SN=000535
		SCAN_CURVETYPE=CROSSPLANE_PROFILE
		SCAN_DEPTH=0.00
		SCAN_OFFAXIS_INPLANE=-70.00
		SCAN_ANGLE=0.00
		SCAN_DIAGONAL=NOT_DIAGONAL
		MEAS_PRESET=TIME_PRESET
		MEAS_TIME=29.200
		MEAS_UNIT=GY
		PRESSURE=1013.25
		TEMPERATURE=20.00
		NORM_TEMPERATURE=20.00
		CORRECTION_FACTOR=1.0000
		CORRECTIONS=AIR_DENSITY_CORR;
		BEGIN_DATA
			-130.00		47.897E-03		#7
			-120.00		58.581E-03		#34
			-110.00		80.215E-03		#61
			-100.00		502.82E-03		#88
			-90.00		820.16E-03		#115
			-80.00		831.60E-03		#142
			-70.00		835.86E-03		#169
			-60.00		835.03E-03		#196
			-50.00		832.11E-03		#223
			-40.00		832.28E-03		#250
			-30.00		829.93E-03		#277
			-20.00		829.45E-03		#304
			-10.00		828.04E-03		#331
			0.00		828.36E-03		#358
			10.00		827.12E-03		#385
			20.00		829.20E-03		#412
			30.00		830.76E-03		#439
			40.00		832.04E-03		#466
			50.00		834.34E-03		#493
			60.00		835.08E-03		#520
			70.00		838.56E-03		#547
			80.00		836.46E-03		#574
			90.00		824.92E-03		#601
			100.00		549.77E-03		#628
			110.00		84.299E-03		#655
			120.00		60.583E-03		#682
			130.00		50.414E-03		#709
		END_DATA
	END_SCAN  7
	BEGIN_SCAN  8
		TASK_NAME=DOSE
		GROUP_NAME=LR_29.2
		PROGRAM=BeamAdjust 1.6.1.85
		MEAS_DATE=24-Jul-2014 12:22:46
		LINAC=Elekta
		MODALITY=X
		INPLANE_AXIS_DIR=TARGET_GUN
		CROSSPLANE_AXIS_DIR=LEFT_RIGHT
		DEPTH_AXIS_DIR=UP_DOWN
		ENERGY=6.00
		SSD=1000.00
		WEDGE=None
		FIELD_INPLANE=200.00
		FIELD_CROSSPLANE=200.00
		FIELD_TYPE=RECTANGULAR
		GANTRY=0.00
		GANTRY_UPRIGHT_POSITION=0
		GANTRY_ROTATION=CW
		COLL_ANGLE=0.00
		COLL_OFFSET_INPLANE=0.00
		COLL_OFFSET_CROSSPLANE=0.00
		SCAN_DEVICE=OCTAVIUS
		ELECTROMETER=DETECTOR_INTERFACE
		DETECTOR=OCTAVIUS_729
		DETECTOR_SN=000535
		SCAN_CURVETYPE=CROSSPLANE_PROFILE
		SCAN_DEPTH=0.00
		SCAN_OFFAXIS_INPLANE=-60.00
		SCAN_ANGLE=0.00
		SCAN_DIAGONAL=NOT_DIAGONAL
		MEAS_PRESET=TIME_PRESET
		MEAS_TIME=29.200
		MEAS_UNIT=GY
		PRESSURE=1013.25
		TEMPERATURE=20.00
		NORM_TEMPERATURE=20.00
		CORRECTION_FACTOR=1.0000
		CORRECTIONS=AIR_DENSITY_CORR;
		BEGIN_DATA
			-130.00		49.658E-03		#8
			-120.00		60.985E-03		#35
			-110.00		83.291E-03		#62
			-100.00		505.92E-03		#89
			-90.00		821.90E-03		#116
			-80.00		831.65E-03		#143
			-70.00		833.86E-03		#170
			-60.00		832.39E-03		#197
			-50.00		829.89E-03		#224
			-40.00		829.08E-03		#251
			-30.00		826.16E-03		#278
			-20.00		826.66E-03		#305
			-10.00		826.28E-03		#332
			0.00		827.36E-03		#359
			10.00		826.69E-03		#386
			20.00		826.05E-03		#413
			30.00		828.66E-03		#440
			40.00		829.26E-03		#467
			50.00		832.56E-03		#494
			60.00		833.41E-03		#521
			70.00		835.76E-03		#548
			80.00		836.60E-03		#575
			90.00		826.58E-03		#602
			100.00		549.53E-03		#629
			110.00		86.841E-03		#656
			120.00		62.956E-03		#683
			130.00		52.257E-03		#710
		END_DATA
	END_SCAN  8
	BEGIN_SCAN  9
		TASK_NAME=DOSE
		GROUP_NAME=LR_29.2
		PROGRAM=BeamAdjust 1.6.1.85
		MEAS_DATE=24-Jul-2014 12:22:46
		LINAC=Elekta
		MODALITY=X
		INPLANE_AXIS_DIR=TARGET_GUN
		CROSSPLANE_AXIS_DIR=LEFT_RIGHT
		DEPTH_AXIS_DIR=UP_DOWN
		ENERGY=6.00
		SSD=1000.00
		WEDGE=None
		FIELD_INPLANE=200.00
		FIELD_CROSSPLANE=200.00
		FIELD_TYPE=RECTANGULAR
		GANTRY=0.00
		GANTRY_UPRIGHT_POSITION=0
		GANTRY_ROTATION=CW
		COLL_ANGLE=0.00
		COLL_OFFSET_INPLANE=0.00
		COLL_OFFSET_CROSSPLANE=0.00
		SCAN_DEVICE=OCTAVIUS
		ELECTROMETER=DETECTOR_INTERFACE
		DETECTOR=OCTAVIUS_729
		DETECTOR_SN=000535
		SCAN_CURVETYPE=CROSSPLANE_PROFILE
		SCAN_DEPTH=0.00
		SCAN_OFFAXIS_INPLANE=-50.00
		SCAN_ANGLE=0.00
		SCAN_DIAGONAL=NOT_DIAGONAL
		MEAS_PRESET=TIME_PRESET
		MEAS_TIME=29.200
		MEAS_UNIT=GY
		PRESSURE=1013.25
		TEMPERATURE=20.00
		NORM_TEMPERATURE=20.00
		CORRECTION_FACTOR=1.0000
		CORRECTIONS=AIR_DENSITY_CORR;
		BEGIN_DATA
			-130.00		51.323E-03		#9
			-120.00		63.007E-03		#36
			-110.00		85.378E-03		#63
			-100.00		508.34E-03		#90
			-90.00		822.22E-03		#117
			-80.00		829.29E-03		#144
			-70.00		829.50E-03		#171
			-60.00		828.52E-03		#198
			-50.00		826.05E-03		#225
			-40.00		825.66E-03		#252
			-30.00		825.05E-03		#279
			-20.00		825.06E-03		#306
			-10.00		825.81E-03		#333
			0.00		826.81E-03		#360
			10.00		824.74E-03		#387
			20.00		826.16E-03		#414
			30.00		826.17E-03		#441
			40.00		826.29E-03		#468
			50.00		829.24E-03		#495
			60.00		829.82E-03		#522
			70.00		832.07E-03		#549
			80.00		834.22E-03		#576
			90.00		826.88E-03		#603
			100.00		550.60E-03		#630
			110.00		89.246E-03		#657
			120.00		64.974E-03		#684
			130.00		54.078E-03		#711
		END_DATA
	END_SCAN  9
	BEGIN_SCAN  10
		TASK_NAME=DOSE
		GROUP_NAME=LR_29.2
		PROGRAM=BeamAdjust 1.6.1.85
		MEAS_DATE=24-Jul-2014 12:22:46
		LINAC=Elekta
		MODALITY=X
		INPLANE_AXIS_DIR=TARGET_GUN
		CROSSPLANE_AXIS_DIR=LEFT_RIGHT
		DEPTH_AXIS_DIR=UP_DOWN
		ENERGY=6.00
		SSD=1000.00
		WEDGE=None
		FIELD_INPLANE=200.00
		FIELD_CROSSPLANE=200.00
		FIELD_TYPE=RECTANGULAR
		GANTRY=0.00
		GANTRY_UPRIGHT_POSITION=0
		GANTRY_ROTATION=CW
		COLL_ANGLE=0.00
		COLL_OFFSET_INPLANE=0.00
		COLL_OFFSET_CROSSPLANE=0.00
		SCAN_DEVICE=OCTAVIUS
		ELECTROMETER=DETECTOR_INTERFACE
		DETECTOR=OCTAVIUS_729
		DETECTOR_SN=000535
		SCAN_CURVETYPE=CROSSPLANE_PROFILE
		SCAN_DEPTH=0.00
		SCAN_OFFAXIS_INPLANE=-40.00
		SCAN_ANGLE=0.00
		SCAN_DIAGONAL=NOT_DIAGONAL
		MEAS_PRESET=TIME_PRESET
		MEAS_TIME=29.200
		MEAS_UNIT=GY
		PRESSURE=1013.25
		TEMPERATURE=20.00
		NORM_TEMPERATURE=20.00
		CORRECTION_FACTOR=1.0000
		CORRECTIONS=AIR_DENSITY_CORR;
		BEGIN_DATA
			-130.00		52.680E-03		#10
			-120.00		64.253E-03		#37
			-110.00		86.386E-03		#64
			-100.00		501.96E-03		#91
			-90.00		820.66E-03		#118
			-80.00		825.64E-03		#145
			-70.00		825.87E-03		#172
			-60.00		824.43E-03		#199
			-50.00		823.53E-03		#226
			-40.00		825.21E-03		#253
			-30.00		823.69E-03		#280
			-20.00		824.48E-03		#307
			-10.00		823.44E-03		#334
			0.00		823.44E-03		#361
			10.00		823.83E-03		#388
			20.00		823.48E-03		#415
			30.00		826.09E-03		#442
			40.00		825.81E-03		#469
			50.00		826.27E-03		#496
			60.00		825.86E-03		#523
			70.00		829.50E-03		#550
			80.00		830.23E-03		#577
			90.00		824.18E-03		#604
			100.00		553.15E-03		#631
			110.00		90.436E-03		#658
			120.00		66.382E-03		#685
			130.00		55.335E-03		#712
		END_DATA
	END_SCAN  10
	BEGIN_SCAN  11
		TASK_NAME=DOSE
		GROUP_NAME=LR_29.2
		PROGRAM=BeamAdjust 1.6.1.85
		MEAS_DATE=24-Jul-2014 12:22:46
		LINAC=Elekta
		MODALITY=X
		INPLANE_AXIS_DIR=TARGET_GUN
		CROSSPLANE_AXIS_DIR=LEFT_RIGHT
		DEPTH_AXIS_DIR=UP_DOWN
		ENERGY=6.00
		SSD=1000.00
		WEDGE=None
		FIELD_INPLANE=200.00
		FIELD_CROSSPLANE=200.00
		FIELD_TYPE=RECTANGULAR
		GANTRY=0.00
		GANTRY_UPRIGHT_POSITION=0
		GANTRY_ROTATION=CW
		COLL_ANGLE=0.00
		COLL_OFFSET_INPLANE=0.00
		COLL_OFFSET_CROSSPLANE=0.00
		SCAN_DEVICE=OCTAVIUS
		ELECTROMETER=DETECTOR_INTERFACE
		DETECTOR=OCTAVIUS_729
		DETECTOR_SN=000535
		SCAN_CURVETYPE=CROSSPLANE_PROFILE
		SCAN_DEPTH=0.00
		SCAN_OFFAXIS_INPLANE=-30.00
		SCAN_ANGLE=0.00
		SCAN_DIAGONAL=NOT_DIAGONAL
		MEAS_PRESET=TIME_PRESET
		MEAS_TIME=29.200
		MEAS_UNIT=GY
		PRESSURE=1013.25
		TEMPERATURE=20.00
		NORM_TEMPERATURE=20.00
		CORRECTION_FACTOR=1.0000
		CORRECTIONS=AIR_DENSITY_CORR;
		BEGIN_DATA
			-130.00		53.603E-03		#11
			-120.00		65.223E-03		#38
			-110.00		87.120E-03		#65
			-100.00		502.86E-03		#92
			-90.00		818.82E-03		#119
			-80.00		823.11E-03		#146
			-70.00		823.36E-03		#173
			-60.00		822.25E-03		#200
			-50.00		821.24E-03		#227
			-40.00		822.94E-03		#254
			-30.00		821.71E-03		#281
			-20.00		821.23E-03		#308
			-10.00		819.74E-03		#335
			0.00		819.22E-03		#362
			10.00		818.17E-03		#389
			20.00		821.13E-03		#416
			30.00		823.64E-03		#443
			40.00		823.29E-03		#470
			50.00		824.33E-03		#497
			60.00		824.06E-03		#524
			70.00		826.51E-03		#551
			80.00		827.93E-03		#578
			90.00		821.58E-03		#605
			100.00		550.42E-03		#632
			110.00		92.430E-03		#659
			120.00		67.685E-03		#686
			130.00		56.332E-03		#713
		END_DATA
	END_SCAN  11
	BEGIN_SCAN  12
		TASK_NAME=DOSE
		GROUP_NAME=LR_29.2
		PROGRAM=BeamAdjust 1.6.1.85
		MEAS_DATE=24-Jul-2014 12:22:46
		LINAC=Elekta
		MODALITY=X
		INPLANE_AXIS_DIR=TARGET_GUN
		CROSSPLANE_AXIS_DIR=LEFT_RIGHT
		DEPTH_AXIS_DIR=UP_DOWN
		ENERGY=6.00
		SSD=1000.00
		WEDGE=None
		FIELD_INPLANE=200.00
		FIELD_CROSSPLANE=200.00
		FIELD_TYPE=RECTANGULAR
		GANTRY=0.00
		GANTRY_UPRIGHT_POSITION=0
		GANTRY_ROTATION=CW
		COLL_ANGLE=0.00
		COLL_OFFSET_INPLANE=0.00
		COLL_OFFSET_CROSSPLANE=0.00
		SCAN_DEVICE=OCTAVIUS
		ELECTROMETER=DETECTOR_INTERFACE
		DETECTOR=OCTAVIUS_729
		DETECTOR_SN=000535
		SCAN_CURVETYPE=CROSSPLANE_PROFILE
		SCAN_DEPTH=0.00
		SCAN_OFFAXIS_INPLANE=-20.00
		SCAN_ANGLE=0.00
		SCAN_DIAGONAL=NOT_DIAGONAL
		MEAS_PRESET=TIME_PRESET
		MEAS_TIME=29.200
		MEAS_UNIT=GY
		PRESSURE=1013.25
		TEMPERATURE=20.00
		NORM_TEMPERATURE=20.00
		CORRECTION_FACTOR=1.0000
		CORRECTIONS=AIR_DENSITY_CORR;
		BEGIN_DATA
			-130.00		54.558E-03		#12
			-120.00		66.458E-03		#39
			-110.00		89.253E-03		#66
			-100.00		503.40E-03		#93
			-90.00		817.46E-03		#120
			-80.00		822.33E-03		#147
			-70.00		821.70E-03		#174
			-60.00		819.67E-03		#201
			-50.00		821.00E-03		#228
			-40.00		820.77E-03		#255
			-30.00		818.65E-03		#282
			-20.00		817.65E-03		#309
			-10.00		813.64E-03		#336
			0.00		811.90E-03		#363
			10.00		813.65E-03		#390
			20.00		817.51E-03		#417
			30.00		820.97E-03		#444
			40.00		822.34E-03		#471
			50.00		822.70E-03		#498
			60.00		823.64E-03		#525
			70.00		825.73E-03		#552
			80.00		826.42E-03		#579
			90.00		821.99E-03		#606
			100.00		551.91E-03		#633
			110.00		92.477E-03		#660
			120.00		68.151E-03		#687
			130.00		57.078E-03		#714
		END_DATA
	END_SCAN  12
	BEGIN_SCAN  13
		TASK_NAME=DOSE
		GROUP_NAME=LR_29.2
		PROGRAM=BeamAdjust 1.6.1.85
		MEAS_DATE=24-Jul-2014 12:22:46
		LINAC=Elekta
		MODALITY=X
		INPLANE_AXIS_DIR=TARGET_GUN
		CROSSPLANE_AXIS_DIR=LEFT_RIGHT
		DEPTH_AXIS_DIR=UP_DOWN
		ENERGY=6.00
		SSD=1000.00
		WEDGE=None
		FIELD_INPLANE=200.00
		FIELD_CROSSPLANE=200.00
		FIELD_TYPE=RECTANGULAR
		GANTRY=0.00
		GANTRY_UPRIGHT_POSITION=0
		GANTRY_ROTATION=CW
		COLL_ANGLE=0.00
		COLL_OFFSET_INPLANE=0.00
		COLL_OFFSET_CROSSPLANE=0.00
		SCAN_DEVICE=OCTAVIUS
		ELECTROMETER=DETECTOR_INTERFACE
		DETECTOR=OCTAVIUS_729
		DETECTOR_SN=000535
		SCAN_CURVETYPE=CROSSPLANE_PROFILE
		SCAN_DEPTH=0.00
		SCAN_OFFAXIS_INPLANE=-10.00
		SCAN_ANGLE=0.00
		SCAN_DIAGONAL=NOT_DIAGONAL
		MEAS_PRESET=TIME_PRESET
		MEAS_TIME=29.200
		MEAS_UNIT=GY
		PRESSURE=1013.25
		TEMPERATURE=20.00
		NORM_TEMPERATURE=20.00
		CORRECTION_FACTOR=1.0000
		CORRECTIONS=AIR_DENSITY_CORR;
		BEGIN_DATA
			-130.00		54.885E-03		#13
			-120.00		66.699E-03		#40
			-110.00		88.938E-03		#67
			-100.00		500.27E-03		#94
			-90.00		817.03E-03		#121
			-80.00		820.17E-03		#148
			-70.00		819.73E-03		#175
			-60.00		819.86E-03		#202
			-50.00		820.77E-03		#229
			-40.00		818.88E-03		#256
			-30.00		816.07E-03		#283
			-20.00		813.13E-03		#310
			-10.00		807.92E-03		#337
			0.00		808.89E-03		#364
			10.00		809.45E-03		#391
			20.00		812.77E-03		#418
			30.00		817.22E-03		#445
			40.00		819.51E-03		#472
			50.00		821.33E-03		#499
			60.00		823.14E-03		#526
			70.00		824.39E-03		#553
			80.00		825.61E-03		#580
			90.00		821.04E-03		#607
			100.00		552.61E-03		#634
			110.00		93.850E-03		#661
			120.00		68.939E-03		#688
			130.00		57.868E-03		#715
		END_DATA
	END_SCAN  13
	BEGIN_SCAN  14
		TASK_NAME=DOSE
		GROUP_NAME=LR_29.2
		PROGRAM=BeamAdjust 1.6.1.85
		MEAS_DATE=24-Jul-2014 12:22:46
		LINAC=Elekta
		MODALITY=X
		INPLANE_AXIS_DIR=TARGET_GUN
		CROSSPLANE_AXIS_DIR=LEFT_RIGHT
		DEPTH_AXIS_DIR=UP_DOWN
		ENERGY=6.00
		SSD=1000.00
		WEDGE=None
		FIELD_INPLANE=200.00
		FIELD_CROSSPLANE=200.00
		FIELD_TYPE=RECTANGULAR
		GANTRY=0.00
		GANTRY_UPRIGHT_POSITION=0
		GANTRY_ROTATION=CW
		COLL_ANGLE=0.00
		COLL_OFFSET_INPLANE=0.00
		COLL_OFFSET_CROSSPLANE=0.00
		SCAN_DEVICE=OCTAVIUS
		ELECTROMETER=DETECTOR_INTERFACE
		DETECTOR=OCTAVIUS_729
		DETECTOR_SN=000535
		SCAN_CURVETYPE=CROSSPLANE_PROFILE
		SCAN_DEPTH=0.00
		SCAN_OFFAXIS_INPLANE=0.00
		SCAN_ANGLE=0.00
		SCAN_DIAGONAL=NOT_DIAGONAL
		MEAS_PRESET=TIME_PRESET
		MEAS_TIME=29.200
		MEAS_UNIT=GY
		PRESSURE=1013.25
		TEMPERATURE=20.00
		NORM_TEMPERATURE=20.00
		CORRECTION_FACTOR=1.0000
		CORRECTIONS=AIR_DENSITY_CORR;
		BEGIN_DATA
			-130.00		55.177E-03		#14
			-120.00		67.158E-03		#41
			-110.00		89.593E-03		#68
			-100.00		497.83E-03		#95
			-90.00		815.73E-03		#122
			-80.00		820.27E-03		#149
			-70.00		819.87E-03		#176
			-60.00		819.36E-03		#203
			-50.00		819.76E-03		#230
			-40.00		818.40E-03		#257
			-30.00		814.93E-03		#284
			-20.00		811.89E-03		#311
			-10.00		807.14E-03		#338
			0.00		805.97E-03		#365
			10.00		806.73E-03		#392
			20.00		811.59E-03		#419
			30.00		816.57E-03		#446
			40.00		818.84E-03		#473
			50.00		821.18E-03		#500
			60.00		821.10E-03		#527
			70.00		823.16E-03		#554
			80.00		824.71E-03		#581
			90.00		819.67E-03		#608
			100.00		547.24E-03		#635
			110.00		93.215E-03		#662
			120.00		68.844E-03		#689
			130.00		57.946E-03		#716
		END_DATA
	END_SCAN  14
	BEGIN_SCAN  15
		TASK_NAME=DOSE
		GROUP_NAME=LR_29.2
		PROGRAM=BeamAdjust 1.6.1.85
		MEAS_DATE=24-Jul-2014 12:22:46
		LINAC=Elekta
		MODALITY=X
		INPLANE_AXIS_DIR=TARGET_GUN
		CROSSPLANE_AXIS_DIR=LEFT_RIGHT
		DEPTH_AXIS_DIR=UP_DOWN
		ENERGY=6.00
		SSD=1000.00
		WEDGE=None
		FIELD_INPLANE=200.00
		FIELD_CROSSPLANE=200.00
		FIELD_TYPE=RECTANGULAR
		GANTRY=0.00
		GANTRY_UPRIGHT_POSITION=0
		GANTRY_ROTATION=CW
		COLL_ANGLE=0.00
		COLL_OFFSET_INPLANE=0.00
		COLL_OFFSET_CROSSPLANE=0.00
		SCAN_DEVICE=OCTAVIUS
		ELECTROMETER=DETECTOR_INTERFACE
		DETECTOR=OCTAVIUS_729
		DETECTOR_SN=000535
		SCAN_CURVETYPE=CROSSPLANE_PROFILE
		SCAN_DEPTH=0.00
		SCAN_OFFAXIS_INPLANE=10.00
		SCAN_ANGLE=0.00
		SCAN_DIAGONAL=NOT_DIAGONAL
		MEAS_PRESET=TIME_PRESET
		MEAS_TIME=29.200
		MEAS_UNIT=GY
		PRESSURE=1013.25
		TEMPERATURE=20.00
		NORM_TEMPERATURE=20.00
		CORRECTION_FACTOR=1.0000
		CORRECTIONS=AIR_DENSITY_CORR;
		BEGIN_DATA
			-130.00		55.086E-03		#15
			-120.00		67.084E-03		#42
			-110.00		89.639E-03		#69
			-100.00		505.53E-03		#96
			-90.00		815.98E-03		#123
			-80.00		820.43E-03		#150
			-70.00		820.99E-03		#177
			-60.00		820.05E-03		#204
			-50.00		819.37E-03		#231
			-40.00		819.54E-03		#258
			-30.00		815.74E-03		#285
			-20.00		812.60E-03		#312
			-10.00		807.94E-03		#339
			0.00		807.91E-03		#366
			10.00		809.15E-03		#393
			20.00		812.09E-03		#420
			30.00		817.67E-03		#447
			40.00		818.77E-03		#474
			50.00		820.46E-03		#501
			60.00		821.14E-03		#528
			70.00		823.16E-03		#555
			80.00		824.31E-03		#582
			90.00		820.63E-03		#609
			100.00		543.69E-03		#636
			110.00		93.221E-03		#663
			120.00		69.206E-03		#690
			130.00		57.982E-03		#717
		END_DATA
	END_SCAN  15
	BEGIN_SCAN  16
		TASK_NAME=DOSE
		GROUP_NAME=LR_29.2
		PROGRAM=BeamAdjust 1.6.1.85
		MEAS_DATE=24-Jul-2014 12:22:46
		LINAC=Elekta
		MODALITY=X
		INPLANE_AXIS_DIR=TARGET_GUN
		CROSSPLANE_AXIS_DIR=LEFT_RIGHT
		DEPTH_AXIS_DIR=UP_DOWN
		ENERGY=6.00
		SSD=1000.00
		WEDGE=None
		FIELD_INPLANE=200.00
		FIELD_CROSSPLANE=200.00
		FIELD_TYPE=RECTANGULAR
		GANTRY=0.00
		GANTRY_UPRIGHT_POSITION=0
		GANTRY_ROTATION=CW
		COLL_ANGLE=0.00
		COLL_OFFSET_INPLANE=0.00
		COLL_OFFSET_CROSSPLANE=0.00
		SCAN_DEVICE=OCTAVIUS
		ELECTROMETER=DETECTOR_INTERFACE
		DETECTOR=OCTAVIUS_729
		DETECTOR_SN=000535
		SCAN_CURVETYPE=CROSSPLANE_PROFILE
		SCAN_DEPTH=0.00
		SCAN_OFFAXIS_INPLANE=20.00
		SCAN_ANGLE=0.00
		SCAN_DIAGONAL=NOT_DIAGONAL
		MEAS_PRESET=TIME_PRESET
		MEAS_TIME=29.200
		MEAS_UNIT=GY
		PRESSURE=1013.25
		TEMPERATURE=20.00
		NORM_TEMPERATURE=20.00
		CORRECTION_FACTOR=1.0000
		CORRECTIONS=AIR_DENSITY_CORR;
		BEGIN_DATA
			-130.00		54.467E-03		#16
			-120.00		66.623E-03		#43
			-110.00		88.515E-03		#70
			-100.00		508.70E-03		#97
			-90.00		818.20E-03		#124
			-80.00		822.40E-03		#151
			-70.00		821.79E-03		#178
			-60.00		821.18E-03		#205
			-50.00		820.31E-03		#232
			-40.00		820.88E-03		#259
			-30.00		819.44E-03		#286
			-20.00		816.54E-03		#313
			-10.00		812.05E-03		#340
			0.00		811.55E-03		#367
			10.00		813.08E-03		#394
			20.00		817.03E-03		#421
			30.00		819.19E-03		#448
			40.00		819.59E-03		#475
			50.00		820.91E-03		#502
			60.00		820.31E-03		#529
			70.00		824.25E-03		#556
			80.00		825.04E-03		#583
			90.00		820.77E-03		#610
			100.00		549.31E-03		#637
			110.00		92.110E-03		#664
			120.00		68.391E-03		#691
			130.00		57.476E-03		#718
		END_DATA
	END_SCAN  16
	BEGIN_SCAN  17
		TASK_NAME=DOSE
		GROUP_NAME=LR_29.2
		PROGRAM=BeamAdjust 1.6.1.85
		MEAS_DATE=24-Jul-2014 12:22:46
		LINAC=Elekta
		MODALITY=X
		INPLANE_AXIS_DIR=TARGET_GUN
		CROSSPLANE_AXIS_DIR=LEFT_RIGHT
		DEPTH_AXIS_DIR=UP_DOWN
		ENERGY=6.00
		SSD=1000.00
		WEDGE=None
		FIELD_INPLANE=200.00
		FIELD_CROSSPLANE=200.00
		FIELD_TYPE=RECTANGULAR
		GANTRY=0.00
		GANTRY_UPRIGHT_POSITION=0
		GANTRY_ROTATION=CW
		COLL_ANGLE=0.00
		COLL_OFFSET_INPLANE=0.00
		COLL_OFFSET_CROSSPLANE=0.00
		SCAN_DEVICE=OCTAVIUS
		ELECTROMETER=DETECTOR_INTERFACE
		DETECTOR=OCTAVIUS_729
		DETECTOR_SN=000535
		SCAN_CURVETYPE=CROSSPLANE_PROFILE
		SCAN_DEPTH=0.00
		SCAN_OFFAXIS_INPLANE=30.00
		SCAN_ANGLE=0.00
		SCAN_DIAGONAL=NOT_DIAGONAL
		MEAS_PRESET=TIME_PRESET
		MEAS_TIME=29.200
		MEAS_UNIT=GY
		PRESSURE=1013.25
		TEMPERATURE=20.00
		NORM_TEMPERATURE=20.00
		CORRECTION_FACTOR=1.0000
		CORRECTIONS=AIR_DENSITY_CORR;
		BEGIN_DATA
			-130.00		53.953E-03		#17
			-120.00		66.208E-03		#44
			-110.00		88.739E-03		#71
			-100.00		503.67E-03		#98
			-90.00		819.59E-03		#125
			-80.00		824.49E-03		#152
			-70.00		824.21E-03		#179
			-60.00		821.63E-03		#206
			-50.00		821.72E-03		#233
			-40.00		823.27E-03		#260
			-30.00		820.87E-03		#287
			-20.00		820.11E-03		#314
			-10.00		816.70E-03		#341
			0.00		817.59E-03		#368
			10.00		819.20E-03		#395
			20.00		821.18E-03		#422
			30.00		823.47E-03		#449
			40.00		822.24E-03		#476
			50.00		821.82E-03		#503
			60.00		821.51E-03		#530
			70.00		825.50E-03		#557
			80.00		827.45E-03		#584
			90.00		821.97E-03		#611
			100.00		547.17E-03		#638
			110.00		90.933E-03		#665
			120.00		67.675E-03		#692
			130.00		56.729E-03		#719
		END_DATA
	END_SCAN  17
	BEGIN_SCAN  18
		TASK_NAME=DOSE
		GROUP_NAME=LR_29.2
