BEGIN_SCAN_DATA
	FORMAT=CC-Export V1.9                  
	FILE_CREATION_DATE=24-Jul-2014 12:24:48
	LAST_MODIFIED=24-Jul-2014 12:24:48
	BEGIN_SCAN  1
		TASK_NAME=DOSE
		GROUP_NAME=LR_39.6
		PROGRAM=BeamAdjust 1.6.1.85
		MEAS_DATE=24-Jul-2014 12:24:36
		LINAC=Elekta
		MODALITY=X
		INPLANE_AXIS_DIR=TARGET_GUN
		CROSSPLANE_AXIS_DIR=LEFT_RIGHT
		DEPTH_AXIS_DIR=UP_DOWN
		ENERGY=15.00
		SSD=1000.00
		WEDGE=None
		FIELD_INPLANE=200.00
		FIELD_CROSSPLANE=200.00
		FIELD_TYPE=RECTANGULAR
		GANTRY=0.00
		GANTRY_UPRIGHT_POSITION=0
		GANTRY_ROTATION=CW
		COLL_ANGLE=0.00
		COLL_OFFSET_INPLANE=0.00
		COLL_OFFSET_CROSSPLANE=0.00
		SCAN_DEVICE=OCTAVIUS
		ELECTROMETER=DETECTOR_INTERFACE
		DETECTOR=OCTAVIUS_729
		DETECTOR_SN=000535
		SCAN_CURVETYPE=CROSSPLANE_PROFILE
		SCAN_DEPTH=0.00
		SCAN_OFFAXIS_INPLANE=-130.00
		SCAN_ANGLE=0.00
		SCAN_DIAGONAL=NOT_DIAGONAL
		MEAS_PRESET=TIME_PRESET
		MEAS_TIME=39.600
		MEAS_UNIT=GY
		PRESSURE=1013.25
		TEMPERATURE=20.00
		NORM_TEMPERATURE=20.00
		CORRECTION_FACTOR=1.0000
		CORRECTIONS=AIR_DENSITY_CORR;
		BEGIN_DATA
			-130.00		42.958E-03		#1
			-120.00		47.860E-03		#28
			-110.00		52.057E-03		#55
			-100.00		56.798E-03		#82
			-90.00		61.079E-03		#109
			-80.00		65.013E-03		#136
			-70.00		68.225E-03		#163
			-60.00		71.222E-03		#190
			-50.00		73.580E-03		#217
			-40.00		75.583E-03		#244
			-30.00		77.377E-03		#271
			-20.00		79.130E-03		#298
			-10.00		80.818E-03		#325
			0.00		80.909E-03		#352
			10.00		80.863E-03		#379
			20.00		79.653E-03		#406
			30.00		78.132E-03		#433
			40.00		76.455E-03		#460
			50.00		74.545E-03		#487
			60.00		72.344E-03		#514
			70.00		69.733E-03		#541
			80.00		66.223E-03		#568
			90.00		62.847E-03		#595
			100.00		58.706E-03		#622
			110.00		54.192E-03		#649
			120.00		50.197E-03		#676
			130.00		45.939E-03		#703
		END_DATA
	END_SCAN  1
	BEGIN_SCAN  2
		TASK_NAME=DOSE
		GROUP_NAME=LR_39.6
		PROGRAM=BeamAdjust 1.6.1.85
		MEAS_DATE=24-Jul-2014 12:24:36
		LINAC=Elekta
		MODALITY=X
		INPLANE_AXIS_DIR=TARGET_GUN
		CROSSPLANE_AXIS_DIR=LEFT_RIGHT
		DEPTH_AXIS_DIR=UP_DOWN
		ENERGY=15.00
		SSD=1000.00
		WEDGE=None
		FIELD_INPLANE=200.00
		FIELD_CROSSPLANE=200.00
		FIELD_TYPE=RECTANGULAR
		GANTRY=0.00
		GANTRY_UPRIGHT_POSITION=0
		GANTRY_ROTATION=CW
		COLL_ANGLE=0.00
		COLL_OFFSET_INPLANE=0.00
		COLL_OFFSET_CROSSPLANE=0.00
		SCAN_DEVICE=OCTAVIUS
		ELECTROMETER=DETECTOR_INTERFACE
		DETECTOR=OCTAVIUS_729
		DETECTOR_SN=000535
		SCAN_CURVETYPE=CROSSPLANE_PROFILE
		SCAN_DEPTH=0.00
		SCAN_OFFAXIS_INPLANE=-120.00
		SCAN_ANGLE=0.00
		SCAN_DIAGONAL=NOT_DIAGONAL
		MEAS_PRESET=TIME_PRESET
		MEAS_TIME=39.600
		MEAS_UNIT=GY
		PRESSURE=1013.25
		TEMPERATURE=20.00
		NORM_TEMPERATURE=20.00
		CORRECTION_FACTOR=1.0000
		CORRECTIONS=AIR_DENSITY_CORR;
		BEGIN_DATA
			-130.00		50.231E-03		#2
			-120.00		56.225E-03		#29
			-110.00		61.787E-03		#56
			-100.00		67.908E-03		#83
			-90.00		73.913E-03		#110
			-80.00		78.706E-03		#137
			-70.00		83.106E-03		#164
			-60.00		87.296E-03		#191
			-50.00		89.459E-03		#218
			-40.00		92.101E-03		#245
			-30.00		93.862E-03		#272
			-20.00		95.847E-03		#299
			-10.00		97.676E-03		#326
			0.00		98.151E-03		#353
			10.00		97.817E-03		#380
			20.00		96.489E-03		#407
			30.00		94.398E-03		#434
			40.00		92.578E-03		#461
			50.00		90.240E-03		#488
			60.00		87.475E-03		#515
			70.00		84.221E-03		#542
			80.00		79.922E-03		#569
			90.00		75.307E-03		#596
			100.00		69.502E-03		#623
			110.00		63.905E-03		#650
			120.00		57.906E-03		#677
			130.00		52.701E-03		#704
		END_DATA
	END_SCAN  2
	BEGIN_SCAN  3
		TASK_NAME=DOSE
		GROUP_NAME=LR_39.6
		PROGRAM=BeamAdjust 1.6.1.85
		MEAS_DATE=24-Jul-2014 12:24:36
		LINAC=Elekta
		MODALITY=X
		INPLANE_AXIS_DIR=TARGET_GUN
		CROSSPLANE_AXIS_DIR=LEFT_RIGHT
		DEPTH_AXIS_DIR=UP_DOWN
		ENERGY=15.00
		SSD=1000.00
		WEDGE=None
		FIELD_INPLANE=200.00
		FIELD_CROSSPLANE=200.00
		FIELD_TYPE=RECTANGULAR
		GANTRY=0.00
		GANTRY_UPRIGHT_POSITION=0
		GANTRY_ROTATION=CW
		COLL_ANGLE=0.00
		COLL_OFFSET_INPLANE=0.00
		COLL_OFFSET_CROSSPLANE=0.00
		SCAN_DEVICE=OCTAVIUS
		ELECTROMETER=DETECTOR_INTERFACE
		DETECTOR=OCTAVIUS_729
		DETECTOR_SN=000535
		SCAN_CURVETYPE=CROSSPLANE_PROFILE
		SCAN_DEPTH=0.00
		SCAN_OFFAXIS_INPLANE=-110.00
		SCAN_ANGLE=0.00
		SCAN_DIAGONAL=NOT_DIAGONAL
		MEAS_PRESET=TIME_PRESET
		MEAS_TIME=39.600
		MEAS_UNIT=GY
		PRESSURE=1013.25
		TEMPERATURE=20.00
		NORM_TEMPERATURE=20.00
		CORRECTION_FACTOR=1.0000
		CORRECTIONS=AIR_DENSITY_CORR;
		BEGIN_DATA
			-130.00		58.209E-03		#3
			-120.00		66.326E-03		#30
			-110.00		74.578E-03		#57
			-100.00		87.522E-03		#84
			-90.00		98.462E-03		#111
			-80.00		105.60E-03		#138
			-70.00		110.92E-03		#165
			-60.00		115.44E-03		#192
			-50.00		118.97E-03		#219
			-40.00		121.85E-03		#246
			-30.00		124.23E-03		#273
			-20.00		126.66E-03		#300
			-10.00		128.09E-03		#327
			0.00		128.92E-03		#354
			10.00		128.34E-03		#381
			20.00		127.17E-03		#408
			30.00		125.07E-03		#435
			40.00		123.07E-03		#462
			50.00		120.47E-03		#489
			60.00		116.99E-03		#516
			70.00		112.71E-03		#543
			80.00		107.39E-03		#570
			90.00		100.86E-03		#597
			100.00		89.896E-03		#624
			110.00		76.730E-03		#651
			120.00		68.348E-03		#678
			130.00		61.137E-03		#705
		END_DATA
	END_SCAN  3
	BEGIN_SCAN  4
		TASK_NAME=DOSE
		GROUP_NAME=LR_39.6
		PROGRAM=BeamAdjust 1.6.1.85
		MEAS_DATE=24-Jul-2014 12:24:36
		LINAC=Elekta
		MODALITY=X
		INPLANE_AXIS_DIR=TARGET_GUN
		CROSSPLANE_AXIS_DIR=LEFT_RIGHT
		DEPTH_AXIS_DIR=UP_DOWN
		ENERGY=15.00
		SSD=1000.00
		WEDGE=None
		FIELD_INPLANE=200.00
		FIELD_CROSSPLANE=200.00
		FIELD_TYPE=RECTANGULAR
		GANTRY=0.00
		GANTRY_UPRIGHT_POSITION=0
		GANTRY_ROTATION=CW
		COLL_ANGLE=0.00
		COLL_OFFSET_INPLANE=0.00
		COLL_OFFSET_CROSSPLANE=0.00
		SCAN_DEVICE=OCTAVIUS
		ELECTROMETER=DETECTOR_INTERFACE
		DETECTOR=OCTAVIUS_729
		DETECTOR_SN=000535
		SCAN_CURVETYPE=CROSSPLANE_PROFILE
		SCAN_DEPTH=0.00
		SCAN_OFFAXIS_INPLANE=-100.00
		SCAN_ANGLE=0.00
		SCAN_DIAGONAL=NOT_DIAGONAL
		MEAS_PRESET=TIME_PRESET
		MEAS_TIME=39.600
		MEAS_UNIT=GY
		PRESSURE=1013.25
		TEMPERATURE=20.00
		NORM_TEMPERATURE=20.00
		CORRECTION_FACTOR=1.0000
		CORRECTIONS=AIR_DENSITY_CORR;
		BEGIN_DATA
			-130.00		66.863E-03		#4
			-120.00		77.864E-03		#31
			-110.00		94.000E-03		#58
			-100.00		313.05E-03		#85
			-90.00		457.27E-03		#112
			-80.00		465.36E-03		#139
			-70.00		470.12E-03		#166
			-60.00		473.35E-03		#193
			-50.00		473.67E-03		#220
			-40.00		476.31E-03		#247
			-30.00		478.23E-03		#274
			-20.00		479.01E-03		#301
			-10.00		481.12E-03		#328
			0.00		481.80E-03		#355
			10.00		482.44E-03		#382
			20.00		483.27E-03		#409
			30.00		483.95E-03		#436
			40.00		483.85E-03		#463
			50.00		483.97E-03		#490
			60.00		484.04E-03		#517
			70.00		483.28E-03		#544
			80.00		481.60E-03		#571
			90.00		475.47E-03		#598
			100.00		337.65E-03		#625
			110.00		96.866E-03		#652
			120.00		80.034E-03		#679
			130.00		70.614E-03		#706
		END_DATA
	END_SCAN  4
	BEGIN_SCAN  5
		TASK_NAME=DOSE
		GROUP_NAME=LR_39.6
		PROGRAM=BeamAdjust 1.6.1.85
		MEAS_DATE=24-Jul-2014 12:24:36
		LINAC=Elekta
		MODALITY=X
		INPLANE_AXIS_DIR=TARGET_GUN
		CROSSPLANE_AXIS_DIR=LEFT_RIGHT
		DEPTH_AXIS_DIR=UP_DOWN
		ENERGY=15.00
		SSD=1000.00
		WEDGE=None
		FIELD_INPLANE=200.00
		FIELD_CROSSPLANE=200.00
		FIELD_TYPE=RECTANGULAR
		GANTRY=0.00
		GANTRY_UPRIGHT_POSITION=0
		GANTRY_ROTATION=CW
		COLL_ANGLE=0.00
		COLL_OFFSET_INPLANE=0.00
		COLL_OFFSET_CROSSPLANE=0.00
		SCAN_DEVICE=OCTAVIUS
		ELECTROMETER=DETECTOR_INTERFACE
		DETECTOR=OCTAVIUS_729
		DETECTOR_SN=000535
		SCAN_CURVETYPE=CROSSPLANE_PROFILE
		SCAN_DEPTH=0.00
		SCAN_OFFAXIS_INPLANE=-90.00
		SCAN_ANGLE=0.00
		SCAN_DIAGONAL=NOT_DIAGONAL
		MEAS_PRESET=TIME_PRESET
		MEAS_TIME=39.600
		MEAS_UNIT=GY
		PRESSURE=1013.25
		TEMPERATURE=20.00
		NORM_TEMPERATURE=20.00
		CORRECTION_FACTOR=1.0000
		CORRECTIONS=AIR_DENSITY_CORR;
		BEGIN_DATA
			-130.00		74.512E-03		#5
			-120.00		87.773E-03		#32
			-110.00		110.42E-03		#59
			-100.00		480.29E-03		#86
			-90.00		720.86E-03		#113
			-80.00		728.95E-03		#140
			-70.00		732.50E-03		#167
			-60.00		734.69E-03		#194
			-50.00		732.65E-03		#221
			-40.00		731.74E-03		#248
			-30.00		729.64E-03		#275
			-20.00		728.94E-03		#302
			-10.00		729.67E-03		#329
			0.00		729.58E-03		#356
			10.00		729.12E-03		#383
			20.00		729.26E-03		#410
			30.00		731.83E-03		#437
			40.00		733.12E-03		#464
			50.00		735.22E-03		#491
			60.00		734.84E-03		#518
			70.00		735.24E-03		#545
			80.00		733.25E-03		#572
			90.00		725.12E-03		#599
			100.00		503.67E-03		#626
			110.00		114.01E-03		#653
			120.00		90.450E-03		#680
			130.00		78.505E-03		#707
		END_DATA
	END_SCAN  5
	BEGIN_SCAN  6
		TASK_NAME=DOSE
		GROUP_NAME=LR_39.6
		PROGRAM=BeamAdjust 1.6.1.85
		MEAS_DATE=24-Jul-2014 12:24:36
		LINAC=Elekta
		MODALITY=X
		INPLANE_AXIS_DIR=TARGET_GUN
		CROSSPLANE_AXIS_DIR=LEFT_RIGHT
		DEPTH_AXIS_DIR=UP_DOWN
		ENERGY=15.00
		SSD=1000.00
		WEDGE=None
		FIELD_INPLANE=200.00
		FIELD_CROSSPLANE=200.00
		FIELD_TYPE=RECTANGULAR
		GANTRY=0.00
		GANTRY_UPRIGHT_POSITION=0
		GANTRY_ROTATION=CW
		COLL_ANGLE=0.00
		COLL_OFFSET_INPLANE=0.00
		COLL_OFFSET_CROSSPLANE=0.00
		SCAN_DEVICE=OCTAVIUS
		ELECTROMETER=DETECTOR_INTERFACE
		DETECTOR=OCTAVIUS_729
		DETECTOR_SN=000535
		SCAN_CURVETYPE=CROSSPLANE_PROFILE
		SCAN_DEPTH=0.00
		SCAN_OFFAXIS_INPLANE=-80.00
		SCAN_ANGLE=0.00
		SCAN_DIAGONAL=NOT_DIAGONAL
		MEAS_PRESET=TIME_PRESET
		MEAS_TIME=39.600
		MEAS_UNIT=GY
		PRESSURE=1013.25
		TEMPERATURE=20.00
		NORM_TEMPERATURE=20.00
		CORRECTION_FACTOR=1.0000
		CORRECTIONS=AIR_DENSITY_CORR;
		BEGIN_DATA
			-130.00		80.339E-03		#6
			-120.00		94.969E-03		#33
			-110.00		119.94E-03		#60
			-100.00		489.16E-03		#87
			-90.00		728.29E-03		#114
			-80.00		737.79E-03		#141
			-70.00		742.31E-03		#168
			-60.00		744.99E-03		#195
			-50.00		743.58E-03		#222
			-40.00		740.98E-03		#249
			-30.00		738.96E-03		#276
			-20.00		738.98E-03		#303
			-10.00		739.01E-03		#330
			0.00		740.52E-03		#357
			10.00		738.71E-03		#384
			20.00		739.10E-03		#411
			30.00		740.36E-03		#438
			40.00		741.64E-03		#465
			50.00		745.26E-03		#492
			60.00		746.00E-03		#519
			70.00		745.41E-03		#546
			80.00		741.84E-03		#573
			90.00		732.60E-03		#600
			100.00		511.09E-03		#627
			110.00		122.62E-03		#654
			120.00		97.457E-03		#681
			130.00		84.355E-03		#708
		END_DATA
	END_SCAN  6
	BEGIN_SCAN  7
		TASK_NAME=DOSE
		GROUP_NAME=LR_39.6
		PROGRAM=BeamAdjust 1.6.1.85
		MEAS_DATE=24-Jul-2014 12:24:36
		LINAC=Elekta
		MODALITY=X
		INPLANE_AXIS_DIR=TARGET_GUN
		CROSSPLANE_AXIS_DIR=LEFT_RIGHT
		DEPTH_AXIS_DIR=UP_DOWN
		ENERGY=15.00
		SSD=1000.00
		WEDGE=None
		FIELD_INPLANE=200.00
		FIELD_CROSSPLANE=200.00
		FIELD_TYPE=RECTANGULAR
		GANTRY=0.00
		GANTRY_UPRIGHT_POSITION=0
		GANTRY_ROTATION=CW
		COLL_ANGLE=0.00
		COLL_OFFSET_INPLANE=0.00
		COLL_OFFSET_CROSSPLANE=0.00
		SCAN_DEVICE=OCTAVIUS
		ELECTROMETER=DETECTOR_INTERFACE
		DETECTOR=OCTAVIUS_729
		DETECTOR_SN=000535
		SCAN_CURVETYPE=CROSSPLANE_PROFILE
		SCAN_DEPTH=0.00
		SCAN_OFFAXIS_INPLANE=-70.00
		SCAN_ANGLE=0.00
		SCAN_DIAGONAL=NOT_DIAGONAL
		MEAS_PRESET=TIME_PRESET
		MEAS_TIME=39.600
		MEAS_UNIT=GY
		PRESSURE=1013.25
		TEMPERATURE=20.00
		NORM_TEMPERATURE=20.00
		CORRECTION_FACTOR=1.0000
		CORRECTIONS=AIR_DENSITY_CORR;
		BEGIN_DATA
			-130.00		84.514E-03		#7
			-120.00		99.950E-03		#34
			-110.00		124.72E-03		#61
			-100.00		485.61E-03		#88
			-90.00		730.35E-03		#115
			-80.00		740.93E-03		#142
			-70.00		746.05E-03		#169
			-60.00		747.65E-03		#196
			-50.00		746.40E-03		#223
			-40.00		746.03E-03		#250
			-30.00		742.50E-03		#277
			-20.00		742.65E-03		#304
			-10.00		742.06E-03		#331
			0.00		742.74E-03		#358
			10.00		741.33E-03		#385
			20.00		742.81E-03		#412
			30.00		744.25E-03		#439
			40.00		747.01E-03		#466
			50.00		748.70E-03		#493
			60.00		747.81E-03		#520
			70.00		749.53E-03		#547
			80.00		745.69E-03		#574
			90.00		735.10E-03		#601
			100.00		514.16E-03		#628
			110.00		128.67E-03		#655
			120.00		102.79E-03		#682
			130.00		88.713E-03		#709
		END_DATA
	END_SCAN  7
	BEGIN_SCAN  8
		TASK_NAME=DOSE
		GROUP_NAME=LR_39.6
		PROGRAM=BeamAdjust 1.6.1.85
		MEAS_DATE=24-Jul-2014 12:24:36
		LINAC=Elekta
		MODALITY=X
		INPLANE_AXIS_DIR=TARGET_GUN
		CROSSPLANE_AXIS_DIR=LEFT_RIGHT
		DEPTH_AXIS_DIR=UP_DOWN
		ENERGY=15.00
		SSD=1000.00
		WEDGE=None
		FIELD_INPLANE=200.00
		FIELD_CROSSPLANE=200.00
		FIELD_TYPE=RECTANGULAR
		GANTRY=0.00
		GANTRY_UPRIGHT_POSITION=0
		GANTRY_ROTATION=CW
		COLL_ANGLE=0.00
		COLL_OFFSET_INPLANE=0.00
		COLL_OFFSET_CROSSPLANE=0.00
		SCAN_DEVICE=OCTAVIUS
		ELECTROMETER=DETECTOR_INTERFACE
		DETECTOR=OCTAVIUS_729
		DETECTOR_SN=000535
		SCAN_CURVETYPE=CROSSPLANE_PROFILE
		SCAN_DEPTH=0.00
		SCAN_OFFAXIS_INPLANE=-60.00
		SCAN_ANGLE=0.00
		SCAN_DIAGONAL=NOT_DIAGONAL
		MEAS_PRESET=TIME_PRESET
		MEAS_TIME=39.600
		MEAS_UNIT=GY
		PRESSURE=1013.25
		TEMPERATURE=20.00
		NORM_TEMPERATURE=20.00
		CORRECTION_FACTOR=1.0000
		CORRECTIONS=AIR_DENSITY_CORR;
		BEGIN_DATA
			-130.00		87.976E-03		#8
			-120.00		104.23E-03		#35
			-110.00		130.00E-03		#62
			-100.00		489.85E-03		#89
			-90.00		732.42E-03		#116
			-80.00		742.19E-03		#143
			-70.00		746.65E-03		#170
			-60.00		748.70E-03		#197
			-50.00		748.30E-03		#224
			-40.00		747.79E-03		#251
			-30.00		743.49E-03		#278
			-20.00		743.20E-03		#305
			-10.00		743.12E-03		#332
			0.00		744.24E-03		#359
			10.00		743.44E-03		#386
			20.00		742.78E-03		#413
			30.00		746.66E-03		#440
			40.00		748.94E-03		#467
			50.00		751.19E-03		#494
			60.00		750.05E-03		#521
			70.00		749.40E-03		#548
			80.00		746.82E-03		#575
			90.00		737.19E-03		#602
			100.00		515.56E-03		#629
			110.00		133.33E-03		#656
			120.00		107.12E-03		#683
			130.00		92.303E-03		#710
		END_DATA
	END_SCAN  8
	BEGIN_SCAN  9
		TASK_NAME=DOSE
		GROUP_NAME=LR_39.6
		PROGRAM=BeamAdjust 1.6.1.85
		MEAS_DATE=24-Jul-2014 12:24:36
		LINAC=Elekta
		MODALITY=X
		INPLANE_AXIS_DIR=TARGET_GUN
		CROSSPLANE_AXIS_DIR=LEFT_RIGHT
		DEPTH_AXIS_DIR=UP_DOWN
		ENERGY=15.00
		SSD=1000.00
		WEDGE=None
		FIELD_INPLANE=200.00
		FIELD_CROSSPLANE=200.00
		FIELD_TYPE=RECTANGULAR
		GANTRY=0.00
		GANTRY_UPRIGHT_POSITION=0
		GANTRY_ROTATION=CW
		COLL_ANGLE=0.00
		COLL_OFFSET_INPLANE=0.00
		COLL_OFFSET_CROSSPLANE=0.00
		SCAN_DEVICE=OCTAVIUS
		ELECTROMETER=DETECTOR_INTERFACE
		DETECTOR=OCTAVIUS_729
		DETECTOR_SN=000535
		SCAN_CURVETYPE=CROSSPLANE_PROFILE
		SCAN_DEPTH=0.00
		SCAN_OFFAXIS_INPLANE=-50.00
		SCAN_ANGLE=0.00
		SCAN_DIAGONAL=NOT_DIAGONAL
		MEAS_PRESET=TIME_PRESET
		MEAS_TIME=39.600
		MEAS_UNIT=GY
		PRESSURE=1013.25
		TEMPERATURE=20.00
		NORM_TEMPERATURE=20.00
		CORRECTION_FACTOR=1.0000
		CORRECTIONS=AIR_DENSITY_CORR;
		BEGIN_DATA
			-130.00		91.177E-03		#9
			-120.00		108.02E-03		#36
			-110.00		134.15E-03		#63
			-100.00		491.89E-03		#90
			-90.00		732.96E-03		#117
			-80.00		741.38E-03		#144
			-70.00		745.34E-03		#171
			-60.00		747.60E-03		#198
			-50.00		747.21E-03		#225
			-40.00		747.07E-03		#252
			-30.00		746.08E-03		#279
			-20.00		743.92E-03		#306
			-10.00		743.28E-03		#333
			0.00		742.73E-03		#360
			10.00		742.77E-03		#387
			20.00		745.57E-03		#414
			30.00		747.40E-03		#441
			40.00		748.59E-03		#468
			50.00		750.84E-03		#495
			60.00		749.68E-03		#522
			70.00		748.50E-03		#549
			80.00		745.86E-03		#576
			90.00		737.27E-03		#603
			100.00		519.43E-03		#630
			110.00		137.81E-03		#657
			120.00		111.00E-03		#684
			130.00		95.686E-03		#711
		END_DATA
	END_SCAN  9
	BEGIN_SCAN  10
		TASK_NAME=DOSE
		GROUP_NAME=LR_39.6
		PROGRAM=BeamAdjust 1.6.1.85
		MEAS_DATE=24-Jul-2014 12:24:36
		LINAC=Elekta
		MODALITY=X
		INPLANE_AXIS_DIR=TARGET_GUN
		CROSSPLANE_AXIS_DIR=LEFT_RIGHT
		DEPTH_AXIS_DIR=UP_DOWN
		ENERGY=15.00
		SSD=1000.00
		WEDGE=None
		FIELD_INPLANE=200.00
		FIELD_CROSSPLANE=200.00
		FIELD_TYPE=RECTANGULAR
		GANTRY=0.00
		GANTRY_UPRIGHT_POSITION=0
		GANTRY_ROTATION=CW
		COLL_ANGLE=0.00
		COLL_OFFSET_INPLANE=0.00
		COLL_OFFSET_CROSSPLANE=0.00
		SCAN_DEVICE=OCTAVIUS
		ELECTROMETER=DETECTOR_INTERFACE
		DETECTOR=OCTAVIUS_729
		DETECTOR_SN=000535
		SCAN_CURVETYPE=CROSSPLANE_PROFILE
		SCAN_DEPTH=0.00
		SCAN_OFFAXIS_INPLANE=-40.00
		SCAN_ANGLE=0.00
		SCAN_DIAGONAL=NOT_DIAGONAL
		MEAS_PRESET=TIME_PRESET
		MEAS_TIME=39.600
		MEAS_UNIT=GY
		PRESSURE=1013.25
		TEMPERATURE=20.00
		NORM_TEMPERATURE=20.00
		CORRECTION_FACTOR=1.0000
		CORRECTIONS=AIR_DENSITY_CORR;
		BEGIN_DATA
			-130.00		93.661E-03		#10
			-120.00		110.73E-03		#37
			-110.00		136.65E-03		#64
			-100.00		487.98E-03		#91
			-90.00		732.56E-03		#118
			-80.00		739.59E-03		#145
			-70.00		744.06E-03		#172
			-60.00		745.43E-03		#199
			-50.00		745.86E-03		#226
			-40.00		747.60E-03		#253
			-30.00		745.09E-03		#280
			-20.00		741.36E-03		#307
			-10.00		736.53E-03		#334
			0.00		735.53E-03		#361
			10.00		737.30E-03		#388
			20.00		741.52E-03		#415
			30.00		748.37E-03		#442
			40.00		749.68E-03		#469
			50.00		749.18E-03		#496
			60.00		747.57E-03		#523
			70.00		748.02E-03		#550
			80.00		744.36E-03		#577
			90.00		735.61E-03		#604
			100.00		520.57E-03		#631
			110.00		140.34E-03		#658
			120.00		113.53E-03		#685
			130.00		97.965E-03		#712
		END_DATA
	END_SCAN  10
	BEGIN_SCAN  11
		TASK_NAME=DOSE
		GROUP_NAME=LR_39.6
		PROGRAM=BeamAdjust 1.6.1.85
		MEAS_DATE=24-Jul-2014 12:24:36
		LINAC=Elekta
		MODALITY=X
		INPLANE_AXIS_DIR=TARGET_GUN
		CROSSPLANE_AXIS_DIR=LEFT_RIGHT
		DEPTH_AXIS_DIR=UP_DOWN
		ENERGY=15.00
		SSD=1000.00
		WEDGE=None
		FIELD_INPLANE=200.00
		FIELD_CROSSPLANE=200.00
		FIELD_TYPE=RECTANGULAR
		GANTRY=0.00
		GANTRY_UPRIGHT_POSITION=0
		GANTRY_ROTATION=CW
		COLL_ANGLE=0.00
		COLL_OFFSET_INPLANE=0.00
		COLL_OFFSET_CROSSPLANE=0.00
		SCAN_DEVICE=OCTAVIUS
		ELECTROMETER=DETECTOR_INTERFACE
		DETECTOR=OCTAVIUS_729
		DETECTOR_SN=000535
		SCAN_CURVETYPE=CROSSPLANE_PROFILE
		SCAN_DEPTH=0.00
		SCAN_OFFAXIS_INPLANE=-30.00
		SCAN_ANGLE=0.00
		SCAN_DIAGONAL=NOT_DIAGONAL
		MEAS_PRESET=TIME_PRESET
		MEAS_TIME=39.600
		MEAS_UNIT=GY
		PRESSURE=1013.25
		TEMPERATURE=20.00
		NORM_TEMPERATURE=20.00
		CORRECTION_FACTOR=1.0000
		CORRECTIONS=AIR_DENSITY_CORR;
		BEGIN_DATA
			-130.00		95.261E-03		#11
			-120.00		112.75E-03		#38
			-110.00		138.53E-03		#65
			-100.00		489.62E-03		#92
			-90.00		731.18E-03		#119
			-80.00		738.35E-03		#146
			-70.00		742.76E-03		#173
			-60.00		744.17E-03		#200
			-50.00		744.17E-03		#227
			-40.00		744.68E-03		#254
			-30.00		738.82E-03		#281
			-20.00		733.60E-03		#308
			-10.00		727.91E-03		#335
			0.00		726.79E-03		#362
			10.00		727.20E-03		#389
			20.00		734.20E-03		#416
			30.00		742.00E-03		#443
			40.00		746.79E-03		#470
			50.00		747.86E-03		#497
			60.00		746.44E-03		#524
			70.00		746.62E-03		#551
			80.00		743.84E-03		#578
			90.00		734.01E-03		#605
			100.00		519.37E-03		#632
			110.00		143.36E-03		#659
			120.00		115.81E-03		#686
			130.00		99.814E-03		#713
		END_DATA
	END_SCAN  11
	BEGIN_SCAN  12
		TASK_NAME=DOSE
		GROUP_NAME=LR_39.6
		PROGRAM=BeamAdjust 1.6.1.85
		MEAS_DATE=24-Jul-2014 12:24:36
		LINAC=Elekta
		MODALITY=X
		INPLANE_AXIS_DIR=TARGET_GUN
		CROSSPLANE_AXIS_DIR=LEFT_RIGHT
		DEPTH_AXIS_DIR=UP_DOWN
		ENERGY=15.00
		SSD=1000.00
		WEDGE=None
		FIELD_INPLANE=200.00
		FIELD_CROSSPLANE=200.00
		FIELD_TYPE=RECTANGULAR
		GANTRY=0.00
		GANTRY_UPRIGHT_POSITION=0
		GANTRY_ROTATION=CW
		COLL_ANGLE=0.00
		COLL_OFFSET_INPLANE=0.00
		COLL_OFFSET_CROSSPLANE=0.00
		SCAN_DEVICE=OCTAVIUS
		ELECTROMETER=DETECTOR_INTERFACE
		DETECTOR=OCTAVIUS_729
		DETECTOR_SN=000535
		SCAN_CURVETYPE=CROSSPLANE_PROFILE
		SCAN_DEPTH=0.00
		SCAN_OFFAXIS_INPLANE=-20.00
		SCAN_ANGLE=0.00
		SCAN_DIAGONAL=NOT_DIAGONAL
		MEAS_PRESET=TIME_PRESET
		MEAS_TIME=39.600
		MEAS_UNIT=GY
		PRESSURE=1013.25
		TEMPERATURE=20.00
		NORM_TEMPERATURE=20.00
		CORRECTION_FACTOR=1.0000
		CORRECTIONS=AIR_DENSITY_CORR;
		BEGIN_DATA
			-130.00		96.848E-03		#12
			-120.00		114.53E-03		#39
			-110.00		141.42E-03		#66
			-100.00		491.07E-03		#93
			-90.00		730.15E-03		#120
			-80.00		738.56E-03		#147
			-70.00		741.81E-03		#174
			-60.00		742.16E-03		#201
			-50.00		743.96E-03		#228
			-40.00		739.08E-03		#255
			-30.00		731.45E-03		#282
			-20.00		727.89E-03		#309
			-10.00		724.96E-03		#336
			0.00		723.62E-03		#363
			10.00		725.28E-03		#390
			20.00		728.53E-03		#417
			30.00		735.02E-03		#444
			40.00		742.63E-03		#471
			50.00		746.39E-03		#498
			60.00		746.12E-03		#525
			70.00		746.03E-03		#552
			80.00		742.69E-03		#579
			90.00		734.76E-03		#606
			100.00		522.18E-03		#633
			110.00		143.92E-03		#660
			120.00		116.75E-03		#687
			130.00		100.99E-03		#714
		END_DATA
	END_SCAN  12
	BEGIN_SCAN  13
		TASK_NAME=DOSE
		GROUP_NAME=LR_39.6
		PROGRAM=BeamAdjust 1.6.1.85
		MEAS_DATE=24-Jul-2014 12:24:36
		LINAC=Elekta
		MODALITY=X
		INPLANE_AXIS_DIR=TARGET_GUN
		CROSSPLANE_AXIS_DIR=LEFT_RIGHT
		DEPTH_AXIS_DIR=UP_DOWN
		ENERGY=15.00
		SSD=1000.00
		WEDGE=None
		FIELD_INPLANE=200.00
		FIELD_CROSSPLANE=200.00
		FIELD_TYPE=RECTANGULAR
		GANTRY=0.00
		GANTRY_UPRIGHT_POSITION=0
		GANTRY_ROTATION=CW
		COLL_ANGLE=0.00
		COLL_OFFSET_INPLANE=0.00
		COLL_OFFSET_CROSSPLANE=0.00
		SCAN_DEVICE=OCTAVIUS
		ELECTROMETER=DETECTOR_INTERFACE
		DETECTOR=OCTAVIUS_729
		DETECTOR_SN=000535
		SCAN_CURVETYPE=CROSSPLANE_PROFILE
		SCAN_DEPTH=0.00
		SCAN_OFFAXIS_INPLANE=-10.00
		SCAN_ANGLE=0.00
		SCAN_DIAGONAL=NOT_DIAGONAL
		MEAS_PRESET=TIME_PRESET
		MEAS_TIME=39.600
		MEAS_UNIT=GY
		PRESSURE=1013.25
		TEMPERATURE=20.00
		NORM_TEMPERATURE=20.00
		CORRECTION_FACTOR=1.0000
		CORRECTIONS=AIR_DENSITY_CORR;
		BEGIN_DATA
			-130.00		97.645E-03		#13
			-120.00		115.18E-03		#40
			-110.00		141.53E-03		#67
			-100.00		487.87E-03		#94
			-90.00		730.32E-03		#121
			-80.00		737.08E-03		#148
			-70.00		740.30E-03		#175
			-60.00		742.25E-03		#202
			-50.00		742.96E-03		#229
			-40.00		734.47E-03		#256
			-30.00		726.27E-03		#283
			-20.00		724.07E-03		#310
			-10.00		721.20E-03		#337
			0.00		723.09E-03		#364
			10.00		723.13E-03		#391
			20.00		724.54E-03		#418
			30.00		728.91E-03		#445
			40.00		737.44E-03		#472
			50.00		744.61E-03		#499
			60.00		745.95E-03		#526
			70.00		745.40E-03		#553
			80.00		742.46E-03		#580
			90.00		734.35E-03		#607
			100.00		520.63E-03		#634
			110.00		145.71E-03		#661
			120.00		117.71E-03		#688
			130.00		102.13E-03		#715
		END_DATA
	END_SCAN  13
	BEGIN_SCAN  14
		TASK_NAME=DOSE
		GROUP_NAME=LR_39.6
		PROGRAM=BeamAdjust 1.6.1.85
		MEAS_DATE=24-Jul-2014 12:24:36
		LINAC=Elekta
		MODALITY=X
		INPLANE_AXIS_DIR=TARGET_GUN
		CROSSPLANE_AXIS_DIR=LEFT_RIGHT
		DEPTH_AXIS_DIR=UP_DOWN
		ENERGY=15.00
		SSD=1000.00
		WEDGE=None
		FIELD_INPLANE=200.00
		FIELD_CROSSPLANE=200.00
		FIELD_TYPE=RECTANGULAR
		GANTRY=0.00
		GANTRY_UPRIGHT_POSITION=0
		GANTRY_ROTATION=CW
		COLL_ANGLE=0.00
		COLL_OFFSET_INPLANE=0.00
		COLL_OFFSET_CROSSPLANE=0.00
		SCAN_DEVICE=OCTAVIUS
		ELECTROMETER=DETECTOR_INTERFACE
		DETECTOR=OCTAVIUS_729
		DETECTOR_SN=000535
		SCAN_CURVETYPE=CROSSPLANE_PROFILE
		SCAN_DEPTH=0.00
		SCAN_OFFAXIS_INPLANE=0.00
		SCAN_ANGLE=0.00
		SCAN_DIAGONAL=NOT_DIAGONAL
		MEAS_PRESET=TIME_PRESET
		MEAS_TIME=39.600
		MEAS_UNIT=GY
		PRESSURE=1013.25
		TEMPERATURE=20.00
		NORM_TEMPERATURE=20.00
		CORRECTION_FACTOR=1.0000
		CORRECTIONS=AIR_DENSITY_CORR;
		BEGIN_DATA
			-130.00		98.027E-03		#14
			-120.00		115.77E-03		#41
			-110.00		142.41E-03		#68
			-100.00		487.12E-03		#95
			-90.00		729.54E-03		#122
			-80.00		737.60E-03		#149
			-70.00		740.76E-03		#176
			-60.00		741.93E-03		#203
			-50.00		741.53E-03		#230
			-40.00		733.61E-03		#257
			-30.00		725.02E-03		#284
			-20.00		723.53E-03		#311
			-10.00		720.57E-03		#338
			0.00		719.98E-03		#365
			10.00		721.20E-03		#392
			20.00		723.82E-03		#419
			30.00		727.94E-03		#446
			40.00		735.67E-03		#473
			50.00		744.21E-03		#500
			60.00		744.31E-03		#527
			70.00		744.53E-03		#554
			80.00		742.31E-03		#581
			90.00		733.68E-03		#608
			100.00		519.38E-03		#635
			110.00		145.69E-03		#662
			120.00		117.82E-03		#689
			130.00		102.46E-03		#716
		END_DATA
	END_SCAN  14
	BEGIN_SCAN  15
		TASK_NAME=DOSE
		GROUP_NAME=LR_39.6
		PROGRAM=BeamAdjust 1.6.1.85
		MEAS_DATE=24-Jul-2014 12:24:36
		LINAC=Elekta
		MODALITY=X
		INPLANE_AXIS_DIR=TARGET_GUN
		CROSSPLANE_AXIS_DIR=LEFT_RIGHT
		DEPTH_AXIS_DIR=UP_DOWN
		ENERGY=15.00
		SSD=1000.00
		WEDGE=None
		FIELD_INPLANE=200.00
		FIELD_CROSSPLANE=200.00
		FIELD_TYPE=RECTANGULAR
		GANTRY=0.00
		GANTRY_UPRIGHT_POSITION=0
		GANTRY_ROTATION=CW
		COLL_ANGLE=0.00
		COLL_OFFSET_INPLANE=0.00
		COLL_OFFSET_CROSSPLANE=0.00
		SCAN_DEVICE=OCTAVIUS
		ELECTROMETER=DETECTOR_INTERFACE
		DETECTOR=OCTAVIUS_729
		DETECTOR_SN=000535
		SCAN_CURVETYPE=CROSSPLANE_PROFILE
		SCAN_DEPTH=0.00
		SCAN_OFFAXIS_INPLANE=10.00
		SCAN_ANGLE=0.00
		SCAN_DIAGONAL=NOT_DIAGONAL
		MEAS_PRESET=TIME_PRESET
		MEAS_TIME=39.600
		MEAS_UNIT=GY
		PRESSURE=1013.25
		TEMPERATURE=20.00
		NORM_TEMPERATURE=20.00
		CORRECTION_FACTOR=1.0000
		CORRECTIONS=AIR_DENSITY_CORR;
		BEGIN_DATA
			-130.00		97.652E-03		#15
			-120.00		115.57E-03		#42
			-110.00		142.16E-03		#69
			-100.00		493.61E-03		#96
			-90.00		729.71E-03		#123
			-80.00		737.80E-03		#150
			-70.00		741.84E-03		#177
			-60.00		742.66E-03		#204
			-50.00		741.78E-03		#231
			-40.00		735.71E-03		#258
			-30.00		726.77E-03		#285
			-20.00		724.55E-03		#312
			-10.00		722.25E-03		#339
			0.00		723.00E-03		#366
			10.00		723.87E-03		#393
			20.00		724.94E-03		#420
			30.00		730.00E-03		#447
			40.00		737.34E-03		#474
			50.00		744.21E-03		#501
			60.00		744.47E-03		#528
			70.00		744.58E-03		#555
			80.00		742.04E-03		#582
			90.00		734.59E-03		#609
			100.00		517.10E-03		#636
			110.00		145.36E-03		#663
			120.00		118.21E-03		#690
			130.00		102.40E-03		#717
		END_DATA
	END_SCAN  15
	BEGIN_SCAN  16
		TASK_NAME=DOSE
		GROUP_NAME=LR_39.6
		PROGRAM=BeamAdjust 1.6.1.85
		MEAS_DATE=24-Jul-2014 12:24:36
		LINAC=Elekta
		MODALITY=X
		INPLANE_AXIS_DIR=TARGET_GUN
		CROSSPLANE_AXIS_DIR=LEFT_RIGHT
		DEPTH_AXIS_DIR=UP_DOWN
		ENERGY=15.00
		SSD=1000.00
		WEDGE=None
		FIELD_INPLANE=200.00
		FIELD_CROSSPLANE=200.00
		FIELD_TYPE=RECTANGULAR
		GANTRY=0.00
		GANTRY_UPRIGHT_POSITION=0
		GANTRY_ROTATION=CW
		COLL_ANGLE=0.00
		COLL_OFFSET_INPLANE=0.00
		COLL_OFFSET_CROSSPLANE=0.00
		SCAN_DEVICE=OCTAVIUS
		ELECTROMETER=DETECTOR_INTERFACE
		DETECTOR=OCTAVIUS_729
		DETECTOR_SN=000535
		SCAN_CURVETYPE=CROSSPLANE_PROFILE
		SCAN_DEPTH=0.00
		SCAN_OFFAXIS_INPLANE=20.00
		SCAN_ANGLE=0.00
		SCAN_DIAGONAL=NOT_DIAGONAL
		MEAS_PRESET=TIME_PRESET
		MEAS_TIME=39.600
		MEAS_UNIT=GY
		PRESSURE=1013.25
		TEMPERATURE=20.00
		NORM_TEMPERATURE=20.00
		CORRECTION_FACTOR=1.0000
		CORRECTIONS=AIR_DENSITY_CORR;
		BEGIN_DATA
			-130.00		96.691E-03		#16
			-120.00		114.76E-03		#43
			-110.00		141.01E-03		#70
			-100.00		494.51E-03		#97
			-90.00		731.46E-03		#124
			-80.00		739.36E-03		#151
			-70.00		742.56E-03		#178
			-60.00		743.80E-03		#205
			-50.00		743.95E-03		#232
			-40.00		740.49E-03		#259
			-30.00		732.89E-03		#286
			-20.00		727.71E-03		#313
			-10.00		723.91E-03		#340
			0.00		724.00E-03		#367
			10.00		726.12E-03		#394
			20.00		729.84E-03		#421
			30.00		734.63E-03		#448
			40.00		740.98E-03		#475
			50.00		745.91E-03		#502
			60.00		744.47E-03		#529
			70.00		745.50E-03		#556
			80.00		742.48E-03		#583
			90.00		734.71E-03		#610
			100.00		518.55E-03		#637
			110.00		143.52E-03		#664
			120.00		116.84E-03		#691
			130.00		101.43E-03		#718
		END_DATA
	END_SCAN  16
	BEGIN_SCAN  17
		TASK_NAME=DOSE
		GROUP_NAME=LR_39.6
		PROGRAM=BeamAdjust 1.6.1.85
		MEAS_DATE=24-Jul-2014 12:24:36
		LINAC=Elekta
		MODALITY=X
		INPLANE_AXIS_DIR=TARGET_GUN
		CROSSPLANE_AXIS_DIR=LEFT_RIGHT
		DEPTH_AXIS_DIR=UP_DOWN
		ENERGY=15.00
		SSD=1000.00
		WEDGE=None
		FIELD_INPLANE=200.00
		FIELD_CROSSPLANE=200.00
		FIELD_TYPE=RECTANGULAR
		GANTRY=0.00
		GANTRY_UPRIGHT_POSITION=0
		GANTRY_ROTATION=CW
		COLL_ANGLE=0.00
		COLL_OFFSET_INPLANE=0.00
		COLL_OFFSET_CROSSPLANE=0.00
		SCAN_DEVICE=OCTAVIUS
		ELECTROMETER=DETECTOR_INTERFACE
		DETECTOR=OCTAVIUS_729
		DETECTOR_SN=000535
		SCAN_CURVETYPE=CROSSPLANE_PROFILE
		SCAN_DEPTH=0.00
		SCAN_OFFAXIS_INPLANE=30.00
		SCAN_ANGLE=0.00
		SCAN_DIAGONAL=NOT_DIAGONAL
		MEAS_PRESET=TIME_PRESET
		MEAS_TIME=39.600
		MEAS_UNIT=GY
		PRESSURE=1013.25
		TEMPERATURE=20.00
		NORM_TEMPERATURE=20.00
		CORRECTION_FACTOR=1.0000
		CORRECTIONS=AIR_DENSITY_CORR;
		BEGIN_DATA
			-130.00		95.453E-03		#17
			-120.00		113.71E-03		#44
			-110.00		140.10E-03		#71
			-100.00		491.62E-03		#98
			-90.00		732.33E-03		#125
			-80.00		740.52E-03		#152
			-70.00		744.73E-03		#179
			-60.00		744.71E-03		#206
			-50.00		745.98E-03		#233
			-40.00		746.32E-03		#260
			-30.00		739.25E-03		#287
			-20.00		733.14E-03		#314
			-10.00		725.54E-03		#341
			0.00		726.41E-03		#368
			10.00		729.83E-03		#395
			20.00		736.40E-03		#422
			30.00		743.53E-03		#449
			40.00		746.91E-03		#476
			50.00		747.06E-03		#503
			60.00		745.39E-03		#530
			70.00		746.47E-03		#557
			80.00		743.83E-03		#584
			90.00		735.39E-03		#611
			100.00		518.07E-03		#638
			110.00		141.77E-03		#665
			120.00		115.62E-03		#692
			130.00		100.09E-03		#719
		END_DATA
	END_SCAN  17
	BEGIN_SCAN  18
		TASK_NAME=DOSE
