BEGIN_SCAN_DATA
	FORMAT=CC-Export V1.9                  
	FILE_CREATION_DATE=28-Aug-2015 15:53:11
	LAST_MODIFIED=28-Aug-2015 15:53:11
	BEGIN_SCAN  1
		TASK_NAME=DOSE
		GROUP_NAME=LR_25.6
		PROGRAM=BeamAdjust 1.7.2.0
		COMMENT=15MV 
		MEAS_DATE=28-Aug-2015 15:52:18
		LINAC=Elekta
		MODALITY=X
		INPLANE_AXIS_DIR=TARGET_GUN
		CROSSPLANE_AXIS_DIR=LEFT_RIGHT
		DEPTH_AXIS_DIR=UP_DOWN
		ENERGY=15.00
		SSD=900.00
		WEDGE=None
		FIELD_INPLANE=200.00
		FIELD_CROSSPLANE=200.00
		FIELD_TYPE=RECTANGULAR
		GANTRY=0.00
		GANTRY_UPRIGHT_POSITION=0
		GANTRY_ROTATION=CW
		COLL_ANGLE=0.00
		SCAN_DEVICE=OCTAVIUS_1500
		ELECTROMETER=DETECTOR_INTERFACE
		ELECTROMETER_SN=1301
		DETECTOR=OCTAVIUS_1500
		DETECTOR_SN=111345
		SCAN_CURVETYPE=CROSSPLANE_PROFILE
		SCAN_DEPTH=0.00
		SCAN_OFFAXIS_INPLANE=-130.00
		SCAN_ANGLE=0.00
		SCAN_DIAGONAL=NOT_DIAGONAL
		MEAS_PRESET=TIME_PRESET
		MEAS_TIME=25.600
		MEAS_UNIT=GY
		PRESSURE=1013.25
		TEMPERATURE=20.00
		NORM_TEMPERATURE=20.00
		CORRECTION_FACTOR=1.0000
		CORRECTIONS=AIR_DENSITY_CORR;
		BEGIN_DATA
			-130.00		14.281E-03		#1379
			-120.00		16.927E-03		#1380
			-110.00		19.822E-03		#1381
			-100.00		22.909E-03		#1382
			-90.00		25.961E-03		#1383
			-80.00		28.213E-03		#1384
			-70.00		30.077E-03		#1385
			-60.00		31.527E-03		#1386
			-50.00		32.538E-03		#1387
			-40.00		33.197E-03		#1388
			-30.00		33.797E-03		#1389
			-20.00		34.929E-03		#1390
			-10.00		35.693E-03		#1391
			0.00		35.753E-03		#1392
			10.00		35.729E-03		#1393
			20.00		34.717E-03		#1394
			30.00		33.485E-03		#1395
			40.00		32.947E-03		#1396
			50.00		32.031E-03		#1397
			60.00		30.985E-03		#1398
			70.00		29.593E-03		#1399
			80.00		27.623E-03		#1400
			90.00		25.428E-03		#1401
			100.00		22.680E-03		#1402
			110.00		19.818E-03		#1403
			120.00		17.085E-03		#1404
			130.00		14.613E-03		#1405
		END_DATA
	END_SCAN  1
	BEGIN_SCAN  2
		TASK_NAME=DOSE
		GROUP_NAME=LR_25.6
		PROGRAM=BeamAdjust 1.7.2.0
		COMMENT=15MV 
		MEAS_DATE=28-Aug-2015 15:52:18
		LINAC=Elekta
		MODALITY=X
		INPLANE_AXIS_DIR=TARGET_GUN
		CROSSPLANE_AXIS_DIR=LEFT_RIGHT
		DEPTH_AXIS_DIR=UP_DOWN
		ENERGY=15.00
		SSD=900.00
		WEDGE=None
		FIELD_INPLANE=200.00
		FIELD_CROSSPLANE=200.00
		FIELD_TYPE=RECTANGULAR
		GANTRY=0.00
		GANTRY_UPRIGHT_POSITION=0
		GANTRY_ROTATION=CW
		COLL_ANGLE=0.00
		SCAN_DEVICE=OCTAVIUS_1500
		ELECTROMETER=DETECTOR_INTERFACE
		ELECTROMETER_SN=1301
		DETECTOR=OCTAVIUS_1500
		DETECTOR_SN=111345
		SCAN_CURVETYPE=CROSSPLANE_PROFILE
		SCAN_DEPTH=0.00
		SCAN_OFFAXIS_INPLANE=-125.00
		SCAN_ANGLE=0.00
		SCAN_DIAGONAL=NOT_DIAGONAL
		MEAS_PRESET=TIME_PRESET
		MEAS_TIME=25.600
		MEAS_UNIT=GY
		PRESSURE=1013.25
		TEMPERATURE=20.00
		NORM_TEMPERATURE=20.00
		CORRECTION_FACTOR=1.0000
		CORRECTIONS=AIR_DENSITY_CORR;
		BEGIN_DATA
			-125.00		17.958E-03		#1353
			-115.00		21.577E-03		#1354
			-105.00		25.494E-03		#1355
			-95.00		29.498E-03		#1356
			-85.00		33.021E-03		#1357
			-75.00		35.702E-03		#1358
			-65.00		37.694E-03		#1359
			-55.00		39.200E-03		#1360
			-45.00		40.146E-03		#1361
			-35.00		40.795E-03		#1362
			-25.00		41.578E-03		#1363
			-15.00		42.950E-03		#1364
			-5.00		43.260E-03		#1365
			5.00		43.185E-03		#1366
			15.00		42.787E-03		#1367
			25.00		41.256E-03		#1368
			35.00		40.550E-03		#1369
			45.00		39.706E-03		#1370
			55.00		38.661E-03		#1371
			65.00		37.148E-03		#1372
			75.00		35.155E-03		#1373
			85.00		32.424E-03		#1374
			95.00		29.110E-03		#1375
			105.00		25.355E-03		#1376
			115.00		21.598E-03		#1377
			125.00		18.165E-03		#1378
		END_DATA
	END_SCAN  2
	BEGIN_SCAN  3
		TASK_NAME=DOSE
		GROUP_NAME=LR_25.6
		PROGRAM=BeamAdjust 1.7.2.0
		COMMENT=15MV 
		MEAS_DATE=28-Aug-2015 15:52:18
		LINAC=Elekta
		MODALITY=X
		INPLANE_AXIS_DIR=TARGET_GUN
		CROSSPLANE_AXIS_DIR=LEFT_RIGHT
		DEPTH_AXIS_DIR=UP_DOWN
		ENERGY=15.00
		SSD=900.00
		WEDGE=None
		FIELD_INPLANE=200.00
		FIELD_CROSSPLANE=200.00
		FIELD_TYPE=RECTANGULAR
		GANTRY=0.00
		GANTRY_UPRIGHT_POSITION=0
		GANTRY_ROTATION=CW
		COLL_ANGLE=0.00
		SCAN_DEVICE=OCTAVIUS_1500
		ELECTROMETER=DETECTOR_INTERFACE
		ELECTROMETER_SN=1301
		DETECTOR=OCTAVIUS_1500
		DETECTOR_SN=111345
		SCAN_CURVETYPE=CROSSPLANE_PROFILE
		SCAN_DEPTH=0.00
		SCAN_OFFAXIS_INPLANE=-120.00
		SCAN_ANGLE=0.00
		SCAN_DIAGONAL=NOT_DIAGONAL
		MEAS_PRESET=TIME_PRESET
		MEAS_TIME=25.600
		MEAS_UNIT=GY
		PRESSURE=1013.25
		TEMPERATURE=20.00
		NORM_TEMPERATURE=20.00
		CORRECTION_FACTOR=1.0000
		CORRECTIONS=AIR_DENSITY_CORR;
		BEGIN_DATA
			-130.00		18.509E-03		#1326
			-120.00		22.703E-03		#1327
			-110.00		27.800E-03		#1328
			-100.00		33.247E-03		#1329
			-90.00		38.691E-03		#1330
			-80.00		42.838E-03		#1331
			-70.00		45.703E-03		#1332
			-60.00		47.823E-03		#1333
			-50.00		49.087E-03		#1334
			-40.00		49.993E-03		#1335
			-30.00		50.594E-03		#1336
			-20.00		51.967E-03		#1337
			-10.00		52.772E-03		#1338
			0.00		53.032E-03		#1339
			10.00		52.801E-03		#1340
			20.00		51.743E-03		#1341
			30.00		50.313E-03		#1342
			40.00		49.617E-03		#1343
			50.00		48.400E-03		#1344
			60.00		47.031E-03		#1345
			70.00		44.995E-03		#1346
			80.00		42.233E-03		#1347
			90.00		38.148E-03		#1348
			100.00		33.192E-03		#1349
			110.00		27.924E-03		#1350
			120.00		23.147E-03		#1351
			130.00		19.029E-03		#1352
		END_DATA
	END_SCAN  3
	BEGIN_SCAN  4
		TASK_NAME=DOSE
		GROUP_NAME=LR_25.6
		PROGRAM=BeamAdjust 1.7.2.0
		COMMENT=15MV 
		MEAS_DATE=28-Aug-2015 15:52:18
		LINAC=Elekta
		MODALITY=X
		INPLANE_AXIS_DIR=TARGET_GUN
		CROSSPLANE_AXIS_DIR=LEFT_RIGHT
		DEPTH_AXIS_DIR=UP_DOWN
		ENERGY=15.00
		SSD=900.00
		WEDGE=None
		FIELD_INPLANE=200.00
		FIELD_CROSSPLANE=200.00
		FIELD_TYPE=RECTANGULAR
		GANTRY=0.00
		GANTRY_UPRIGHT_POSITION=0
		GANTRY_ROTATION=CW
		COLL_ANGLE=0.00
		SCAN_DEVICE=OCTAVIUS_1500
		ELECTROMETER=DETECTOR_INTERFACE
		ELECTROMETER_SN=1301
		DETECTOR=OCTAVIUS_1500
		DETECTOR_SN=111345
		SCAN_CURVETYPE=CROSSPLANE_PROFILE
		SCAN_DEPTH=0.00
		SCAN_OFFAXIS_INPLANE=-115.00
		SCAN_ANGLE=0.00
		SCAN_DIAGONAL=NOT_DIAGONAL
		MEAS_PRESET=TIME_PRESET
		MEAS_TIME=25.600
		MEAS_UNIT=GY
		PRESSURE=1013.25
		TEMPERATURE=20.00
		NORM_TEMPERATURE=20.00
		CORRECTION_FACTOR=1.0000
		CORRECTIONS=AIR_DENSITY_CORR;
		BEGIN_DATA
			-125.00		23.451E-03		#1300
			-115.00		29.339E-03		#1301
			-105.00		37.085E-03		#1302
			-95.00		45.727E-03		#1303
			-85.00		52.605E-03		#1304
			-75.00		57.104E-03		#1305
			-65.00		59.927E-03		#1306
			-55.00		61.896E-03		#1307
			-45.00		63.115E-03		#1308
			-35.00		63.966E-03		#1309
			-25.00		64.880E-03		#1310
			-15.00		66.976E-03		#1311
			-5.00		67.259E-03		#1312
			5.00		67.255E-03		#1313
			15.00		66.936E-03		#1314
			25.00		64.509E-03		#1315
			35.00		63.397E-03		#1316
			45.00		62.403E-03		#1317
			55.00		60.994E-03		#1318
			65.00		59.080E-03		#1319
			75.00		56.279E-03		#1320
			85.00		51.849E-03		#1321
			95.00		45.373E-03		#1322
			105.00		36.961E-03		#1323
			115.00		29.709E-03		#1324
			125.00		23.847E-03		#1325
		END_DATA
	END_SCAN  4
	BEGIN_SCAN  5
		TASK_NAME=DOSE
		GROUP_NAME=LR_25.6
		PROGRAM=BeamAdjust 1.7.2.0
		COMMENT=15MV 
		MEAS_DATE=28-Aug-2015 15:52:18
		LINAC=Elekta
		MODALITY=X
		INPLANE_AXIS_DIR=TARGET_GUN
		CROSSPLANE_AXIS_DIR=LEFT_RIGHT
		DEPTH_AXIS_DIR=UP_DOWN
		ENERGY=15.00
		SSD=900.00
		WEDGE=None
		FIELD_INPLANE=200.00
		FIELD_CROSSPLANE=200.00
		FIELD_TYPE=RECTANGULAR
		GANTRY=0.00
		GANTRY_UPRIGHT_POSITION=0
		GANTRY_ROTATION=CW
		COLL_ANGLE=0.00
		SCAN_DEVICE=OCTAVIUS_1500
		ELECTROMETER=DETECTOR_INTERFACE
		ELECTROMETER_SN=1301
		DETECTOR=OCTAVIUS_1500
		DETECTOR_SN=111345
		SCAN_CURVETYPE=CROSSPLANE_PROFILE
		SCAN_DEPTH=0.00
		SCAN_OFFAXIS_INPLANE=-110.00
		SCAN_ANGLE=0.00
		SCAN_DIAGONAL=NOT_DIAGONAL
		MEAS_PRESET=TIME_PRESET
		MEAS_TIME=25.600
		MEAS_UNIT=GY
		PRESSURE=1013.25
		TEMPERATURE=20.00
		NORM_TEMPERATURE=20.00
		CORRECTION_FACTOR=1.0000
		CORRECTIONS=AIR_DENSITY_CORR;
		BEGIN_DATA
			-130.00		23.315E-03		#1273
			-120.00		29.998E-03		#1274
			-110.00		39.321E-03		#1275
			-100.00		55.518E-03		#1276
			-90.00		71.380E-03		#1277
			-80.00		79.518E-03		#1278
			-70.00		83.862E-03		#1279
			-60.00		86.405E-03		#1280
			-50.00		88.025E-03		#1281
			-40.00		89.084E-03		#1282
			-30.00		89.936E-03		#1283
			-20.00		91.689E-03		#1284
			-10.00		92.566E-03		#1285
			0.00		92.632E-03		#1286
			10.00		92.242E-03		#1287
			20.00		91.093E-03		#1288
			30.00		89.148E-03		#1289
			40.00		88.211E-03		#1290
			50.00		86.731E-03		#1291
			60.00		85.031E-03		#1292
			70.00		82.252E-03		#1293
			80.00		78.087E-03		#1294
			90.00		70.199E-03		#1295
			100.00		55.472E-03		#1296
			110.00		39.565E-03		#1297
			120.00		30.449E-03		#1298
			130.00		24.033E-03		#1299
		END_DATA
	END_SCAN  5
	BEGIN_SCAN  6
		TASK_NAME=DOSE
		GROUP_NAME=LR_25.6
		PROGRAM=BeamAdjust 1.7.2.0
		COMMENT=15MV 
		MEAS_DATE=28-Aug-2015 15:52:18
		LINAC=Elekta
		MODALITY=X
		INPLANE_AXIS_DIR=TARGET_GUN
		CROSSPLANE_AXIS_DIR=LEFT_RIGHT
		DEPTH_AXIS_DIR=UP_DOWN
		ENERGY=15.00
		SSD=900.00
		WEDGE=None
		FIELD_INPLANE=200.00
		FIELD_CROSSPLANE=200.00
		FIELD_TYPE=RECTANGULAR
		GANTRY=0.00
		GANTRY_UPRIGHT_POSITION=0
		GANTRY_ROTATION=CW
		COLL_ANGLE=0.00
		SCAN_DEVICE=OCTAVIUS_1500
		ELECTROMETER=DETECTOR_INTERFACE
		ELECTROMETER_SN=1301
		DETECTOR=OCTAVIUS_1500
		DETECTOR_SN=111345
		SCAN_CURVETYPE=CROSSPLANE_PROFILE
		SCAN_DEPTH=0.00
		SCAN_OFFAXIS_INPLANE=-105.00
		SCAN_ANGLE=0.00
		SCAN_DIAGONAL=NOT_DIAGONAL
		MEAS_PRESET=TIME_PRESET
		MEAS_TIME=25.600
		MEAS_UNIT=GY
		PRESSURE=1013.25
		TEMPERATURE=20.00
		NORM_TEMPERATURE=20.00
		CORRECTION_FACTOR=1.0000
		CORRECTIONS=AIR_DENSITY_CORR;
		BEGIN_DATA
			-125.00		29.544E-03		#1247
			-115.00		39.469E-03		#1248
			-105.00		62.521E-03		#1249
			-95.00		121.19E-03		#1250
			-85.00		143.36E-03		#1251
			-75.00		150.73E-03		#1252
			-65.00		154.29E-03		#1253
			-55.00		156.14E-03		#1254
			-45.00		157.02E-03		#1255
			-35.00		157.52E-03		#1256
			-25.00		158.51E-03		#1257
			-15.00		158.82E-03		#1258
			-5.00		159.10E-03		#1259
			5.00		158.72E-03		#1260
			15.00		157.99E-03		#1261
			25.00		156.74E-03		#1262
			35.00		155.42E-03		#1263
			45.00		153.85E-03		#1264
			55.00		152.16E-03		#1265
			65.00		149.72E-03		#1266
			75.00		145.66E-03		#1267
			85.00		138.36E-03		#1268
			95.00		118.20E-03		#1269
			105.00		63.707E-03		#1270
			115.00		39.955E-03		#1271
			125.00		30.158E-03		#1272
		END_DATA
	END_SCAN  6
	BEGIN_SCAN  7
		TASK_NAME=DOSE
		GROUP_NAME=LR_25.6
		PROGRAM=BeamAdjust 1.7.2.0
		COMMENT=15MV 
		MEAS_DATE=28-Aug-2015 15:52:18
		LINAC=Elekta
		MODALITY=X
		INPLANE_AXIS_DIR=TARGET_GUN
		CROSSPLANE_AXIS_DIR=LEFT_RIGHT
		DEPTH_AXIS_DIR=UP_DOWN
		ENERGY=15.00
		SSD=900.00
		WEDGE=None
		FIELD_INPLANE=200.00
		FIELD_CROSSPLANE=200.00
		FIELD_TYPE=RECTANGULAR
		GANTRY=0.00
		GANTRY_UPRIGHT_POSITION=0
		GANTRY_ROTATION=CW
		COLL_ANGLE=0.00
		SCAN_DEVICE=OCTAVIUS_1500
		ELECTROMETER=DETECTOR_INTERFACE
		ELECTROMETER_SN=1301
		DETECTOR=OCTAVIUS_1500
		DETECTOR_SN=111345
		SCAN_CURVETYPE=CROSSPLANE_PROFILE
		SCAN_DEPTH=0.00
		SCAN_OFFAXIS_INPLANE=-100.00
		SCAN_ANGLE=0.00
		SCAN_DIAGONAL=NOT_DIAGONAL
		MEAS_PRESET=TIME_PRESET
		MEAS_TIME=25.600
		MEAS_UNIT=GY
		PRESSURE=1013.25
		TEMPERATURE=20.00
		NORM_TEMPERATURE=20.00
		CORRECTION_FACTOR=1.0000
		CORRECTIONS=AIR_DENSITY_CORR;
		BEGIN_DATA
			-130.00		28.882E-03		#1220
			-120.00		38.274E-03		#1221
			-110.00		58.686E-03		#1222
			-100.00		229.53E-03		#1223
			-90.00		426.10E-03		#1224
			-80.00		441.87E-03		#1225
			-70.00		445.59E-03		#1226
			-60.00		446.70E-03		#1227
			-50.00		445.02E-03		#1228
			-40.00		443.97E-03		#1229
			-30.00		443.74E-03		#1230
			-20.00		443.73E-03		#1231
			-10.00		443.00E-03		#1232
			0.00		443.15E-03		#1233
			10.00		441.47E-03		#1234
			20.00		440.54E-03		#1235
			30.00		438.00E-03		#1236
			40.00		436.76E-03		#1237
			50.00		435.20E-03		#1238
			60.00		434.12E-03		#1239
			70.00		431.06E-03		#1240
			80.00		425.37E-03		#1241
			90.00		408.61E-03		#1242
			100.00		246.41E-03		#1243
			110.00		60.016E-03		#1244
			120.00		39.310E-03		#1245
			130.00		29.671E-03		#1246
		END_DATA
	END_SCAN  7
	BEGIN_SCAN  8
		TASK_NAME=DOSE
		GROUP_NAME=LR_25.6
		PROGRAM=BeamAdjust 1.7.2.0
		COMMENT=15MV 
		MEAS_DATE=28-Aug-2015 15:52:18
		LINAC=Elekta
		MODALITY=X
		INPLANE_AXIS_DIR=TARGET_GUN
		CROSSPLANE_AXIS_DIR=LEFT_RIGHT
		DEPTH_AXIS_DIR=UP_DOWN
		ENERGY=15.00
		SSD=900.00
		WEDGE=None
		FIELD_INPLANE=200.00
		FIELD_CROSSPLANE=200.00
		FIELD_TYPE=RECTANGULAR
		GANTRY=0.00
		GANTRY_UPRIGHT_POSITION=0
		GANTRY_ROTATION=CW
		COLL_ANGLE=0.00
		SCAN_DEVICE=OCTAVIUS_1500
		ELECTROMETER=DETECTOR_INTERFACE
		ELECTROMETER_SN=1301
		DETECTOR=OCTAVIUS_1500
		DETECTOR_SN=111345
		SCAN_CURVETYPE=CROSSPLANE_PROFILE
		SCAN_DEPTH=0.00
		SCAN_OFFAXIS_INPLANE=-95.00
		SCAN_ANGLE=0.00
		SCAN_DIAGONAL=NOT_DIAGONAL
		MEAS_PRESET=TIME_PRESET
		MEAS_TIME=25.600
		MEAS_UNIT=GY
		PRESSURE=1013.25
		TEMPERATURE=20.00
		NORM_TEMPERATURE=20.00
		CORRECTION_FACTOR=1.0000
		CORRECTIONS=AIR_DENSITY_CORR;
		BEGIN_DATA
			-125.00		36.116E-03		#1194
			-115.00		51.712E-03		#1195
			-105.00		120.92E-03		#1196
			-95.00		592.65E-03		#1197
			-85.00		658.02E-03		#1198
			-75.00		666.16E-03		#1199
			-65.00		669.80E-03		#1200
			-55.00		669.17E-03		#1201
			-45.00		666.91E-03		#1202
			-35.00		666.16E-03		#1203
			-25.00		666.46E-03		#1204
			-15.00		666.96E-03		#1205
			-5.00		668.10E-03		#1206
			5.00		668.30E-03		#1207
			15.00		667.47E-03		#1208
			25.00		666.98E-03		#1209
			35.00		665.09E-03		#1210
			45.00		665.21E-03		#1211
			55.00		665.69E-03		#1212
			65.00		665.73E-03		#1213
			75.00		661.08E-03		#1214
			85.00		652.63E-03		#1215
			95.00		597.13E-03		#1216
			105.00		129.67E-03		#1217
			115.00		52.689E-03		#1218
			125.00		37.122E-03		#1219
		END_DATA
	END_SCAN  8
	BEGIN_SCAN  9
		TASK_NAME=DOSE
		GROUP_NAME=LR_25.6
		PROGRAM=BeamAdjust 1.7.2.0
		COMMENT=15MV 
		MEAS_DATE=28-Aug-2015 15:52:18
		LINAC=Elekta
		MODALITY=X
		INPLANE_AXIS_DIR=TARGET_GUN
		CROSSPLANE_AXIS_DIR=LEFT_RIGHT
		DEPTH_AXIS_DIR=UP_DOWN
		ENERGY=15.00
		SSD=900.00
		WEDGE=None
		FIELD_INPLANE=200.00
		FIELD_CROSSPLANE=200.00
		FIELD_TYPE=RECTANGULAR
		GANTRY=0.00
		GANTRY_UPRIGHT_POSITION=0
		GANTRY_ROTATION=CW
		COLL_ANGLE=0.00
		SCAN_DEVICE=OCTAVIUS_1500
		ELECTROMETER=DETECTOR_INTERFACE
		ELECTROMETER_SN=1301
		DETECTOR=OCTAVIUS_1500
		DETECTOR_SN=111345
		SCAN_CURVETYPE=CROSSPLANE_PROFILE
		SCAN_DEPTH=0.00
		SCAN_OFFAXIS_INPLANE=-90.00
		SCAN_ANGLE=0.00
		SCAN_DIAGONAL=NOT_DIAGONAL
		MEAS_PRESET=TIME_PRESET
		MEAS_TIME=25.600
		MEAS_UNIT=GY
		PRESSURE=1013.25
		TEMPERATURE=20.00
		NORM_TEMPERATURE=20.00
		CORRECTION_FACTOR=1.0000
		CORRECTIONS=AIR_DENSITY_CORR;
		BEGIN_DATA
			-130.00		33.166E-03		#1167
			-120.00		45.798E-03		#1168
			-110.00		75.337E-03		#1169
			-100.00		366.27E-03		#1170
			-90.00		682.28E-03		#1171
			-80.00		704.23E-03		#1172
			-70.00		710.80E-03		#1173
			-60.00		712.32E-03		#1174
			-50.00		711.52E-03		#1175
			-40.00		710.11E-03		#1176
			-30.00		708.50E-03		#1177
			-20.00		709.15E-03		#1178
			-10.00		710.06E-03		#1179
			0.00		712.11E-03		#1180
			10.00		710.70E-03		#1181
			20.00		709.48E-03		#1182
			30.00		708.82E-03		#1183
			40.00		709.07E-03		#1184
			50.00		710.79E-03		#1185
			60.00		711.26E-03		#1186
			70.00		708.47E-03		#1187
			80.00		700.36E-03		#1188
			90.00		681.13E-03		#1189
			100.00		395.88E-03		#1190
			110.00		78.157E-03		#1191
			120.00		47.015E-03		#1192
			130.00		34.406E-03		#1193
		END_DATA
	END_SCAN  9
	BEGIN_SCAN  10
		TASK_NAME=DOSE
		GROUP_NAME=LR_25.6
		PROGRAM=BeamAdjust 1.7.2.0
		COMMENT=15MV 
		MEAS_DATE=28-Aug-2015 15:52:18
		LINAC=Elekta
		MODALITY=X
		INPLANE_AXIS_DIR=TARGET_GUN
		CROSSPLANE_AXIS_DIR=LEFT_RIGHT
		DEPTH_AXIS_DIR=UP_DOWN
		ENERGY=15.00
		SSD=900.00
		WEDGE=None
		FIELD_INPLANE=200.00
		FIELD_CROSSPLANE=200.00
		FIELD_TYPE=RECTANGULAR
		GANTRY=0.00
		GANTRY_UPRIGHT_POSITION=0
		GANTRY_ROTATION=CW
		COLL_ANGLE=0.00
		SCAN_DEVICE=OCTAVIUS_1500
		ELECTROMETER=DETECTOR_INTERFACE
		ELECTROMETER_SN=1301
		DETECTOR=OCTAVIUS_1500
		DETECTOR_SN=111345
		SCAN_CURVETYPE=CROSSPLANE_PROFILE
		SCAN_DEPTH=0.00
		SCAN_OFFAXIS_INPLANE=-85.00
		SCAN_ANGLE=0.00
		SCAN_DIAGONAL=NOT_DIAGONAL
		MEAS_PRESET=TIME_PRESET
		MEAS_TIME=25.600
		MEAS_UNIT=GY
		PRESSURE=1013.25
		TEMPERATURE=20.00
		NORM_TEMPERATURE=20.00
		CORRECTION_FACTOR=1.0000
		CORRECTIONS=AIR_DENSITY_CORR;
		BEGIN_DATA
			-125.00		40.355E-03		#1141
			-115.00		58.929E-03		#1142
			-105.00		138.29E-03		#1143
			-95.00		634.57E-03		#1144
			-85.00		710.22E-03		#1145
			-75.00		722.63E-03		#1146
			-65.00		726.86E-03		#1147
			-55.00		728.25E-03		#1148
			-45.00		725.40E-03		#1149
			-35.00		723.86E-03		#1150
			-25.00		723.15E-03		#1151
			-15.00		723.90E-03		#1152
			-5.00		724.06E-03		#1153
			5.00		725.01E-03		#1154
			15.00		724.31E-03		#1155
			25.00		723.65E-03		#1156
			35.00		724.19E-03		#1157
			45.00		724.83E-03		#1158
			55.00		727.24E-03		#1159
			65.00		725.55E-03		#1160
			75.00		719.89E-03		#1161
			85.00		707.24E-03		#1162
			95.00		642.47E-03		#1163
			105.00		149.40E-03		#1164
			115.00		60.778E-03		#1165
			125.00		41.729E-03		#1166
		END_DATA
	END_SCAN  10
	BEGIN_SCAN  11
		TASK_NAME=DOSE
		GROUP_NAME=LR_25.6
		PROGRAM=BeamAdjust 1.7.2.0
		COMMENT=15MV 
		MEAS_DATE=28-Aug-2015 15:52:18
		LINAC=Elekta
		MODALITY=X
		INPLANE_AXIS_DIR=TARGET_GUN
		CROSSPLANE_AXIS_DIR=LEFT_RIGHT
		DEPTH_AXIS_DIR=UP_DOWN
		ENERGY=15.00
		SSD=900.00
		WEDGE=None
		FIELD_INPLANE=200.00
		FIELD_CROSSPLANE=200.00
		FIELD_TYPE=RECTANGULAR
		GANTRY=0.00
		GANTRY_UPRIGHT_POSITION=0
		GANTRY_ROTATION=CW
		COLL_ANGLE=0.00
		SCAN_DEVICE=OCTAVIUS_1500
		ELECTROMETER=DETECTOR_INTERFACE
		ELECTROMETER_SN=1301
		DETECTOR=OCTAVIUS_1500
		DETECTOR_SN=111345
		SCAN_CURVETYPE=CROSSPLANE_PROFILE
		SCAN_DEPTH=0.00
		SCAN_OFFAXIS_INPLANE=-80.00
		SCAN_ANGLE=0.00
		SCAN_DIAGONAL=NOT_DIAGONAL
		MEAS_PRESET=TIME_PRESET
		MEAS_TIME=25.600
		MEAS_UNIT=GY
		PRESSURE=1013.25
		TEMPERATURE=20.00
		NORM_TEMPERATURE=20.00
		CORRECTION_FACTOR=1.0000
		CORRECTIONS=AIR_DENSITY_CORR;
		BEGIN_DATA
			-130.00		36.120E-03		#1114
			-120.00		49.807E-03		#1115
			-110.00		82.390E-03		#1116
			-100.00		374.89E-03		#1117
			-90.00		698.16E-03		#1118
			-80.00		725.50E-03		#1119
			-70.00		732.84E-03		#1120
			-60.00		735.61E-03		#1121
			-50.00		734.94E-03		#1122
			-40.00		731.50E-03		#1123
			-30.00		730.81E-03		#1124
			-20.00		730.28E-03		#1125
			-10.00		730.96E-03		#1126
			0.00		731.16E-03		#1127
			10.00		731.67E-03		#1128
			20.00		731.28E-03		#1129
			30.00		730.74E-03		#1130
			40.00		732.08E-03		#1131
			50.00		734.59E-03		#1132
			60.00		734.81E-03		#1133
			70.00		730.96E-03		#1134
			80.00		723.14E-03		#1135
			90.00		698.00E-03		#1136
			100.00		408.00E-03		#1137
			110.00		85.788E-03		#1138
			120.00		51.467E-03		#1139
			130.00		37.451E-03		#1140
		END_DATA
	END_SCAN  11
	BEGIN_SCAN  12
		TASK_NAME=DOSE
		GROUP_NAME=LR_25.6
		PROGRAM=BeamAdjust 1.7.2.0
		COMMENT=15MV 
		MEAS_DATE=28-Aug-2015 15:52:18
		LINAC=Elekta
		MODALITY=X
		INPLANE_AXIS_DIR=TARGET_GUN
		CROSSPLANE_AXIS_DIR=LEFT_RIGHT
		DEPTH_AXIS_DIR=UP_DOWN
		ENERGY=15.00
		SSD=900.00
		WEDGE=None
		FIELD_INPLANE=200.00
		FIELD_CROSSPLANE=200.00
		FIELD_TYPE=RECTANGULAR
		GANTRY=0.00
		GANTRY_UPRIGHT_POSITION=0
		GANTRY_ROTATION=CW
		COLL_ANGLE=0.00
		SCAN_DEVICE=OCTAVIUS_1500
		ELECTROMETER=DETECTOR_INTERFACE
		ELECTROMETER_SN=1301
		DETECTOR=OCTAVIUS_1500
		DETECTOR_SN=111345
		SCAN_CURVETYPE=CROSSPLANE_PROFILE
		SCAN_DEPTH=0.00
		SCAN_OFFAXIS_INPLANE=-75.00
		SCAN_ANGLE=0.00
		SCAN_DIAGONAL=NOT_DIAGONAL
		MEAS_PRESET=TIME_PRESET
		MEAS_TIME=25.600
		MEAS_UNIT=GY
		PRESSURE=1013.25
		TEMPERATURE=20.00
		NORM_TEMPERATURE=20.00
		CORRECTION_FACTOR=1.0000
		CORRECTIONS=AIR_DENSITY_CORR;
		BEGIN_DATA
			-125.00		43.480E-03		#1088
			-115.00		63.200E-03		#1089
			-105.00		143.86E-03		#1090
			-95.00		640.25E-03		#1091
			-85.00		720.20E-03		#1092
			-75.00		733.77E-03		#1093
			-65.00		739.09E-03		#1094
			-55.00		739.75E-03		#1095
			-45.00		737.05E-03		#1096
			-35.00		735.46E-03		#1097
			-25.00		734.63E-03		#1098
			-15.00		733.09E-03		#1099
			-5.00		734.29E-03		#1100
			5.00		734.67E-03		#1101
			15.00		734.53E-03		#1102
			25.00		734.39E-03		#1103
			35.00		735.40E-03		#1104
			45.00		737.47E-03		#1105
			55.00		739.38E-03		#1106
			65.00		737.13E-03		#1107
			75.00		731.62E-03		#1108
			85.00		718.71E-03		#1109
			95.00		650.29E-03		#1110
			105.00		156.67E-03		#1111
			115.00		65.180E-03		#1112
			125.00		44.698E-03		#1113
		END_DATA
	END_SCAN  12
	BEGIN_SCAN  13
		TASK_NAME=DOSE
		GROUP_NAME=LR_25.6
		PROGRAM=BeamAdjust 1.7.2.0
		COMMENT=15MV 
		MEAS_DATE=28-Aug-2015 15:52:18
		LINAC=Elekta
		MODALITY=X
		INPLANE_AXIS_DIR=TARGET_GUN
		CROSSPLANE_AXIS_DIR=LEFT_RIGHT
		DEPTH_AXIS_DIR=UP_DOWN
		ENERGY=15.00
		SSD=900.00
		WEDGE=None
		FIELD_INPLANE=200.00
		FIELD_CROSSPLANE=200.00
		FIELD_TYPE=RECTANGULAR
		GANTRY=0.00
		GANTRY_UPRIGHT_POSITION=0
		GANTRY_ROTATION=CW
		COLL_ANGLE=0.00
		SCAN_DEVICE=OCTAVIUS_1500
		ELECTROMETER=DETECTOR_INTERFACE
		ELECTROMETER_SN=1301
		DETECTOR=OCTAVIUS_1500
		DETECTOR_SN=111345
		SCAN_CURVETYPE=CROSSPLANE_PROFILE
		SCAN_DEPTH=0.00
		SCAN_OFFAXIS_INPLANE=-70.00
		SCAN_ANGLE=0.00
		SCAN_DIAGONAL=NOT_DIAGONAL
		MEAS_PRESET=TIME_PRESET
		MEAS_TIME=25.600
		MEAS_UNIT=GY
		PRESSURE=1013.25
		TEMPERATURE=20.00
		NORM_TEMPERATURE=20.00
		CORRECTION_FACTOR=1.0000
		CORRECTIONS=AIR_DENSITY_CORR;
		BEGIN_DATA
			-130.00		38.200E-03		#1061
			-120.00		53.057E-03		#1062
			-110.00		86.616E-03		#1063
			-100.00		380.76E-03		#1064
			-90.00		703.99E-03		#1065
			-80.00		731.69E-03		#1066
			-70.00		739.74E-03		#1067
			-60.00		742.24E-03		#1068
			-50.00		742.17E-03		#1069
			-40.00		738.92E-03		#1070
			-30.00		736.70E-03		#1071
			-20.00		736.79E-03		#1072
			-10.00		735.24E-03		#1073
			0.00		736.11E-03		#1074
			10.00		735.70E-03		#1075
			20.00		737.39E-03		#1076
			30.00		738.16E-03		#1077
			40.00		740.76E-03		#1078
			50.00		741.93E-03		#1079
			60.00		741.90E-03		#1080
			70.00		738.21E-03		#1081
			80.00		730.74E-03		#1082
			90.00		704.28E-03		#1083
			100.00		415.79E-03		#1084
			110.00		89.839E-03		#1085
			120.00		54.477E-03		#1086
			130.00		39.481E-03		#1087
		END_DATA
	END_SCAN  13
	BEGIN_SCAN  14
		TASK_NAME=DOSE
		GROUP_NAME=LR_25.6
		PROGRAM=BeamAdjust 1.7.2.0
		COMMENT=15MV 
		MEAS_DATE=28-Aug-2015 15:52:18
		LINAC=Elekta
		MODALITY=X
		INPLANE_AXIS_DIR=TARGET_GUN
		CROSSPLANE_AXIS_DIR=LEFT_RIGHT
		DEPTH_AXIS_DIR=UP_DOWN
		ENERGY=15.00
		SSD=900.00
		WEDGE=None
		FIELD_INPLANE=200.00
		FIELD_CROSSPLANE=200.00
		FIELD_TYPE=RECTANGULAR
		GANTRY=0.00
		GANTRY_UPRIGHT_POSITION=0
		GANTRY_ROTATION=CW
		COLL_ANGLE=0.00
		SCAN_DEVICE=OCTAVIUS_1500
		ELECTROMETER=DETECTOR_INTERFACE
		ELECTROMETER_SN=1301
		DETECTOR=OCTAVIUS_1500
		DETECTOR_SN=111345
		SCAN_CURVETYPE=CROSSPLANE_PROFILE
		SCAN_DEPTH=0.00
		SCAN_OFFAXIS_INPLANE=-65.00
		SCAN_ANGLE=0.00
		SCAN_DIAGONAL=NOT_DIAGONAL
		MEAS_PRESET=TIME_PRESET
		MEAS_TIME=25.600
		MEAS_UNIT=GY
		PRESSURE=1013.25
		TEMPERATURE=20.00
		NORM_TEMPERATURE=20.00
		CORRECTION_FACTOR=1.0000
		CORRECTIONS=AIR_DENSITY_CORR;
		BEGIN_DATA
			-125.00		45.421E-03		#1035
			-115.00		65.984E-03		#1036
			-105.00		148.07E-03		#1037
			-95.00		645.63E-03		#1038
			-85.00		723.55E-03		#1039
			-75.00		737.50E-03		#1040
			-65.00		742.23E-03		#1041
			-55.00		742.54E-03		#1042
			-45.00		742.65E-03		#1043
			-35.00		738.76E-03		#1044
			-25.00		736.72E-03		#1045
			-15.00		735.85E-03		#1046
			-5.00		735.68E-03		#1047
			5.00		735.66E-03		#1048
			15.00		735.89E-03		#1049
			25.00		738.05E-03		#1050
			35.00		740.93E-03		#1051
			45.00		743.44E-03		#1052
			55.00		743.65E-03		#1053
			65.00		742.32E-03		#1054
			75.00		736.19E-03		#1055
			85.00		722.60E-03		#1056
			95.00		654.64E-03		#1057
			105.00		160.62E-03		#1058
			115.00		68.150E-03		#1059
			125.00		46.916E-03		#1060
		END_DATA
	END_SCAN  14
	BEGIN_SCAN  15
		TASK_NAME=DOSE
		GROUP_NAME=LR_25.6
		PROGRAM=BeamAdjust 1.7.2.0
		COMMENT=15MV 
		MEAS_DATE=28-Aug-2015 15:52:18
		LINAC=Elekta
		MODALITY=X
		INPLANE_AXIS_DIR=TARGET_GUN
		CROSSPLANE_AXIS_DIR=LEFT_RIGHT
		DEPTH_AXIS_DIR=UP_DOWN
		ENERGY=15.00
		SSD=900.00
		WEDGE=None
		FIELD_INPLANE=200.00
		FIELD_CROSSPLANE=200.00
		FIELD_TYPE=RECTANGULAR
		GANTRY=0.00
		GANTRY_UPRIGHT_POSITION=0
		GANTRY_ROTATION=CW
		COLL_ANGLE=0.00
		SCAN_DEVICE=OCTAVIUS_1500
		ELECTROMETER=DETECTOR_INTERFACE
		ELECTROMETER_SN=1301
		DETECTOR=OCTAVIUS_1500
		DETECTOR_SN=111345
		SCAN_CURVETYPE=CROSSPLANE_PROFILE
		SCAN_DEPTH=0.00
		SCAN_OFFAXIS_INPLANE=-60.00
		SCAN_ANGLE=0.00
		SCAN_DIAGONAL=NOT_DIAGONAL
		MEAS_PRESET=TIME_PRESET
		MEAS_TIME=25.600
		MEAS_UNIT=GY
		PRESSURE=1013.25
		TEMPERATURE=20.00
		NORM_TEMPERATURE=20.00
		CORRECTION_FACTOR=1.0000
		CORRECTIONS=AIR_DENSITY_CORR;
		BEGIN_DATA
			-130.00		39.817E-03		#1008
			-120.00		54.862E-03		#1009
			-110.00		89.082E-03		#1010
			-100.00		384.90E-03		#1011
			-90.00		707.34E-03		#1012
			-80.00		735.14E-03		#1013
			-70.00		742.14E-03		#1014
			-60.00		743.89E-03		#1015
			-50.00		744.33E-03		#1016
			-40.00		743.10E-03		#1017
			-30.00		738.07E-03		#1018
			-20.00		736.19E-03		#1019
			-10.00		736.37E-03		#1020
			0.00		736.54E-03		#1021
			10.00		737.11E-03		#1022
			20.00		737.58E-03		#1023
			30.00		741.20E-03		#1024
			40.00		744.28E-03		#1025
			50.00		746.61E-03		#1026
			60.00		744.48E-03		#1027
			70.00		741.50E-03		#1028
			80.00		733.42E-03		#1029
			90.00		708.20E-03		#1030
			100.00		421.79E-03		#1031
			110.00		93.173E-03		#1032
			120.00		56.879E-03		#1033
			130.00		41.325E-03		#1034
		END_DATA
	END_SCAN  15
	BEGIN_SCAN  16
		TASK_NAME=DOSE
		GROUP_NAME=LR_25.6
		PROGRAM=BeamAdjust 1.7.2.0
		COMMENT=15MV 
		MEAS_DATE=28-Aug-2015 15:52:18
		LINAC=Elekta
		MODALITY=X
		INPLANE_AXIS_DIR=TARGET_GUN
		CROSSPLANE_AXIS_DIR=LEFT_RIGHT
		DEPTH_AXIS_DIR=UP_DOWN
		ENERGY=15.00
		SSD=900.00
		WEDGE=None
		FIELD_INPLANE=200.00
		FIELD_CROSSPLANE=200.00
		FIELD_TYPE=RECTANGULAR
		GANTRY=0.00
		GANTRY_UPRIGHT_POSITION=0
		GANTRY_ROTATION=CW
		COLL_ANGLE=0.00
		SCAN_DEVICE=OCTAVIUS_1500
		ELECTROMETER=DETECTOR_INTERFACE
		ELECTROMETER_SN=1301
		DETECTOR=OCTAVIUS_1500
		DETECTOR_SN=111345
		SCAN_CURVETYPE=CROSSPLANE_PROFILE
		SCAN_DEPTH=0.00
		SCAN_OFFAXIS_INPLANE=-55.00
		SCAN_ANGLE=0.00
		SCAN_DIAGONAL=NOT_DIAGONAL
		MEAS_PRESET=TIME_PRESET
		MEAS_TIME=25.600
		MEAS_UNIT=GY
		PRESSURE=1013.25
		TEMPERATURE=20.00
		NORM_TEMPERATURE=20.00
		CORRECTION_FACTOR=1.0000
		CORRECTIONS=AIR_DENSITY_CORR;
		BEGIN_DATA
			-125.00		46.858E-03		#982
			-115.00		68.104E-03		#983
			-105.00		151.35E-03		#984
			-95.00		647.06E-03		#985
			-85.00		725.13E-03		#986
			-75.00		738.71E-03		#987
			-65.00		742.41E-03		#988
			-55.00		744.25E-03		#989
			-45.00		742.21E-03		#990
			-35.00		740.66E-03		#991
			-25.00		736.49E-03		#992
			-15.00		735.34E-03		#993
			-5.00		735.59E-03		#994
			5.00		736.47E-03		#995
			15.00		737.27E-03		#996
			25.00		738.83E-03		#997
			35.00		742.53E-03		#998
			45.00		744.71E-03		#999
			55.00		745.66E-03		#1000
			65.00		742.78E-03		#1001
			75.00		738.28E-03		#1002
			85.00		725.05E-03		#1003
			95.00		658.66E-03		#1004
			105.00		165.48E-03		#1005
			115.00		70.248E-03		#1006
			125.00		48.590E-03		#1007
		END_DATA
	END_SCAN  16
	BEGIN_SCAN  17
		TASK_NAME=DOSE
		GROUP_NAME=LR_25.6
		PROGRAM=BeamAdjust 1.7.2.0
		COMMENT=15MV 
		MEAS_DATE=28-Aug-2015 15:52:18
		LINAC=Elekta
		MODALITY=X
		INPLANE_AXIS_DIR=TARGET_GUN
		CROSSPLANE_AXIS_DIR=LEFT_RIGHT
		DEPTH_AXIS_DIR=UP_DOWN
		ENERGY=15.00
		SSD=900.00
		WEDGE=None
		FIELD_INPLANE=200.00
		FIELD_CROSSPLANE=200.00
		FIELD_TYPE=RECTANGULAR
		GANTRY=0.00
		GANTRY_UPRIGHT_POSITION=0
		GANTRY_ROTATION=CW
		COLL_ANGLE=0.00
		SCAN_DEVICE=OCTAVIUS_1500
		ELECTROMETER=DETECTOR_INTERFACE
		ELECTROMETER_SN=1301
		DETECTOR=OCTAVIUS_1500
		DETECTOR_SN=111345
		SCAN_CURVETYPE=CROSSPLANE_PROFILE
		SCAN_DEPTH=0.00
		SCAN_OFFAXIS_INPLANE=-50.00
		SCAN_ANGLE=0.00
		SCAN_DIAGONAL=NOT_DIAGONAL
		MEAS_PRESET=TIME_PRESET
		MEAS_TIME=25.600
		MEAS_UNIT=GY
		PRESSURE=1013.25
		TEMPERATURE=20.00
		NORM_TEMPERATURE=20.00
		CORRECTION_FACTOR=1.0000
		CORRECTIONS=AIR_DENSITY_CORR;
		BEGIN_DATA
			-130.00		41.003E-03		#955
			-120.00		56.425E-03		#956
			-110.00		91.133E-03		#957
			-100.00		389.53E-03		#958
			-90.00		708.15E-03		#959
			-80.00		734.62E-03		#960
			-70.00		740.92E-03		#961
			-60.00		743.57E-03		#962
			-50.00		743.34E-03		#963
			-40.00		741.35E-03		#964
			-30.00		739.66E-03		#965
			-20.00		736.76E-03		#966
			-10.00		735.66E-03		#967
			0.00		733.72E-03		#968
			10.00		736.11E-03		#969
			20.00		738.62E-03		#970
			30.00		741.45E-03		#971
			40.00		744.23E-03		#972
			50.00		745.67E-03		#973
			60.00		744.99E-03		#974
			70.00		741.56E-03		#975
			80.00		733.73E-03		#976
			90.00		708.27E-03		#977
			100.00		432.24E-03		#978
			110.00		95.177E-03		#979
			120.00		58.302E-03		#980
			130.00		42.493E-03		#981
		END_DATA
	END_SCAN  17
	BEGIN_SCAN  18
		TASK_NAME=DOSE
